Time   C(t)   
ps   
0           1           1  9.21545e-10   0.0536329
10    0.469222    0.871583   -0.894307   0.0277004
20    0.445992    0.865962   -0.784863  0.00176792
30    0.433864    0.863028   -0.289004  0.00122522
40    0.421487    0.860034   -0.729899  0.00155723
50    0.402719    0.855493   -0.287929  0.00103447
60    0.400798    0.855028   -0.178996  0.000315464
70     0.39641    0.853967   0.0961735  0.000932237
80    0.382153    0.850517   -0.591562  0.000916767
90    0.378075     0.84953   -0.949701  0.000621653
100     0.36972    0.847509   -0.922044  0.000560862
110    0.366857    0.846817    0.729052  0.000607227
120    0.357576    0.844571     1.08725  0.000619447
130    0.354468    0.843819     -1.0614  0.00041811
140    0.349214    0.842548   -0.867914  0.000322965
150    0.348009    0.842256    0.811512  0.000414155
160     0.34093    0.840544    0.371047  0.000465547
170    0.338698    0.840004   -0.896432  0.000138576
180    0.338159    0.839873   -0.428014  0.000337255
190    0.331953    0.838372    0.617834  0.000558732
200    0.326984     0.83717    0.563219  0.000361237
210    0.324728    0.836624    -1.06143  0.000146239
220    0.324059    0.836462   -0.483382  0.000146608
230    0.321796    0.835914    0.452754  0.000249329
240    0.319073    0.835256     0.42515  0.000358121
250    0.314634    0.834181   -0.125376  0.000518489
260    0.308703    0.832747   -0.234928  -0.000268704
270    0.320008    0.835482   -0.760272  -6.82175e-05
280    0.310067    0.833077  -0.0711382  0.000737502
290    0.305258    0.831913   -0.676065  -0.000108656
300    0.312241    0.833602   -0.264951  0.000379246
310    0.297673    0.830078   -0.510796   0.0005684
320    0.300873    0.830852   -0.346926  -4.24981e-06
330    0.297758    0.830099   -0.787418  0.000386563
340    0.293141    0.828982   -0.345743  0.000168474
350    0.294388    0.829283   -0.209261  0.000347836
360    0.286185    0.827298    0.203896  0.000105737
370    0.292274    0.828772    0.368008  6.63072e-05
380    0.284858    0.826978    0.011106  0.000429972
390    0.283674    0.826691    0.588913  0.000176504
400    0.281328    0.826124  -0.0444495  0.000101537
410    0.281643      0.8262   -0.347733  0.000223695
420    0.276854    0.825041     1.05677  0.000188996
430    0.277864    0.825285   -0.540551  0.000381513
440    0.269224    0.823195     1.03016  0.000224705
450    0.273369    0.824198     1.13904  -0.000146917
460    0.272163    0.823906    0.726525  0.000330639
470    0.266757    0.822598  -0.0447455  -0.000194266
480    0.276048    0.824846     1.77097  8.07941e-05
490    0.265141    0.822207     1.00129  0.000454225
500    0.266963    0.822648    0.586923  0.000215773
510    0.260825    0.821163    0.560504  0.000379986
520    0.259364    0.820809    0.670996  -7.08893e-05
530    0.262243    0.821506      2.1854  -0.000211808
540      0.2636    0.821834    0.587004  0.00017584
550    0.258726    0.820655   -0.788655  0.000340705
560    0.256786    0.820186   -0.321125  -1.98185e-07
570     0.25873    0.820656   -0.706733  7.66546e-05
580    0.255253    0.819815    0.119609  0.000247814
590    0.253774    0.819457    0.725261  0.000130177
600    0.252649    0.819185   -0.183406  0.000296199
610     0.24785    0.818024    0.367579  -0.00018317
620    0.256312    0.820071    0.201423  -0.00032522
630    0.254354    0.819597  -0.0187021  0.000219716
640    0.251918    0.819008    -1.03797  0.000190425
650    0.250546    0.818676     0.33941  -5.90026e-05
660    0.253098    0.819293   -0.514884  0.000125692
670    0.248032    0.818068   -0.101161  0.000590672
680    0.241285    0.816435    0.505728  -1.09755e-05
690    0.248252    0.818121     1.08276  -0.000380761
700      0.2489    0.818278   0.0907954  -0.000130706
710    0.250866    0.818753    0.669087  0.000234386
720    0.244212    0.817144   -0.679829  0.000336354
730    0.244139    0.817126    -1.61588  0.000229423
740    0.239624    0.816033   -0.376868  1.30609e-06
750    0.244112    0.817119    0.475732  0.000158188
760     0.23646    0.815268    0.531798  0.000133872
770    0.241435    0.816472   -0.488356  9.26062e-05
780    0.234608     0.81482   -0.349804  0.00040589
790    0.233317    0.814508    -1.25809  -0.000184856
800    0.238305    0.815714    -0.95637  -0.000154652
810     0.23641    0.815256   -0.212918  0.000292564
820    0.232454    0.814299   -0.872754  6.88948e-05
830    0.235032    0.814923    0.227332  -0.00020358
840    0.236525    0.815284    -1.34235  -4.01936e-05
850    0.235836    0.815117   -0.460753  -0.00011335
860    0.238792    0.815832    -1.28763  2.66805e-05
870    0.235303    0.814988   -0.709637  2.01769e-05
880    0.238389    0.815735    -1.06759  0.000276859
890    0.229765    0.813648   -0.488679  0.00033792
900     0.23163      0.8141    -1.59094  0.000204639
910    0.225673    0.812658    -2.52606  -7.0668e-05
920    0.233044    0.814442    -1.26097  -8.84801e-05
930    0.227442    0.813086    -1.89307  0.000131433
940    0.230415    0.813806    -1.09498  0.000132172
950    0.224799    0.812447   -0.350664  0.000175026
960    0.226915    0.812959    -1.86635  0.000145093
970    0.221897    0.811745    -1.56315  0.000262053
980    0.221674    0.811691    -2.08672  -7.01755e-05
990    0.223301    0.812084    -1.34335  0.000219975
1000    0.217274    0.810626   -0.764252  0.000263347
1010    0.218034     0.81081    0.171157  0.000159074
1020    0.214093    0.809856   -0.131615  0.000128205
1030    0.215469     0.81019   -0.434952  -0.000435539
1040    0.222803    0.811964    -1.09689  -0.000206486
1050    0.219599    0.811189    -1.06915  0.000501046
1060    0.212782    0.809539    -1.59124   0.0001286
1070    0.217027    0.810566   -0.875847  -0.000169533
1080    0.216173     0.81036    -1.28852  0.000147963
1090    0.214068     0.80985     -0.9031  -2.04228e-05
1100    0.216582    0.810459    -1.61962  -2.02753e-05
1110    0.214473    0.809949    -1.06901  -2.04846e-05
1120    0.216991    0.810558    -0.18838  0.000192752
1130    0.210618    0.809016   -0.462205  0.000123648
1140    0.214518    0.809959    -0.73845  -0.000189463
1150    0.214408    0.809933    -1.61922  0.000193343
1160    0.210651    0.809024   -0.545633  0.000275356
1170    0.208901      0.8086    -1.12406  -0.00020273
1180    0.214706    0.810005    -1.86765  -5.76235e-05
1190    0.210053    0.808879     -2.0331  0.000213175
1200    0.210442    0.808973    -1.73036  0.000112771
1210    0.207798    0.808333    -1.78543  -0.000114964
1220    0.212742     0.80953    -2.03394   9.427e-05
1230    0.205912    0.807877    -2.14316  0.000480796
1240    0.203126    0.807203    -1.59256  0.000234473
1250    0.201223    0.806743    -1.26245  -0.000197358
1260    0.207073    0.808158    -2.33698  -4.45791e-05
1270    0.202114    0.806958    -1.31731  0.000126801
1280    0.204537    0.807545    -2.28145  2.5437e-05
1290    0.201606    0.806835    -1.20824  0.000325355
1300     0.19803     0.80597    -2.03361  0.000453955
1310    0.192526    0.804639    -2.22621  0.000250068
1320    0.193029     0.80476   -0.904956  -8.87267e-05
1330    0.194301    0.805068    -2.14451  -0.000204442
1340    0.197117    0.805749    -1.64903  -0.000294806
1350    0.200197    0.806495    -1.87036  0.000251286
1360    0.192092    0.804533   -0.767613  0.000373592
1370    0.192725    0.804687    -1.48338  -0.000463132
1380    0.201354    0.806774    -1.59463  0.000162351
1390    0.189478    0.803901    -2.00625  0.000252014
1400    0.196314    0.805555    -1.01679  -0.000121554
1410    0.191909    0.804489    -1.56721  0.000473367
1420    0.186847    0.803264    -1.31927  0.000137284
1430    0.189164    0.803825   -0.575602  -0.000108694
1440    0.189021     0.80379    -1.81483  0.000215873
1450    0.184846    0.802781    -2.14502  2.09525e-05
1460    0.188601    0.803689    -1.18187  -7.62858e-05
1470    0.186372     0.80315   -0.548268  4.71413e-05
1480    0.187659    0.803461   -0.989405  -4.39994e-05
1490    0.187252    0.803363    -1.65045  5.38416e-05
1500    0.186582      0.8032    -1.92557  -6.38194e-05
1510    0.188528    0.803671    -1.51241  -0.000175211
1520    0.190086    0.804048     -2.5051  -0.000129733
1530    0.191123    0.804299    -2.28408  0.000342847
1540    0.183229    0.802389    -1.04483  0.000139255
1550    0.188338    0.803625   -0.522386  -0.000129499
1560    0.185819    0.803016   -0.714962  0.00026523
1570    0.183033    0.802342   -0.632099  3.47614e-05
1580    0.185124    0.802848    -1.20996  -0.000248946
1590    0.188012    0.803546    -0.96312  0.00020704
1600    0.180983    0.801846    -1.70574  0.000200266
1610    0.184007    0.802577    -2.11935  -0.000143566
1620    0.183854    0.802541    -2.09167  0.00013482
1630     0.18131    0.801925    -2.33975  0.000221466
1640    0.179425    0.801469     -1.1006  -0.00021065
1650    0.185523    0.802944    -2.09277  8.91946e-05
1660    0.177641    0.801037    -2.58712  0.000355497
1670    0.178414    0.801224     -1.6511  -8.39844e-05
1680    0.179321    0.801444    -2.39447  8.96379e-05
1690    0.176621     0.80079    -2.64333  -8.44397e-05
1700     0.18101    0.801852    -3.41395  -0.000278571
1710    0.182192    0.802138    -1.87219  -7.13952e-05
1720    0.182438    0.802198    -1.23893  0.00030471
1730    0.176098    0.800664    -2.09231  0.00029828
1740    0.176472    0.800754    -2.42285  -2.39097e-05
1750    0.176576     0.80078    -1.89977  0.000245781
1760    0.171556    0.799565    -1.65201  0.000171775
1770    0.173141    0.799948    -2.69818  -0.000388546
1780    0.179327    0.801445    -1.79067  -0.000186124
1790    0.176863    0.800849    -2.23044  0.000389002
1800    0.171547    0.799563    -2.50582  0.000464326
1810    0.167577    0.798602    -2.75376  -7.79234e-05
1820    0.173106     0.79994    -1.79024  -0.000322349
1830    0.174024    0.800162    -3.82848  7.15181e-05
1840    0.171675    0.799594    -2.28658  4.41968e-05
1850     0.17314    0.799948     -2.8924  5.13904e-05
1860    0.170648    0.799345    -2.80997  0.000379419
1870    0.165551    0.798112    -1.62551  0.000558128
1880    0.159485    0.796645    -2.12075  0.000100293
1890    0.163545    0.797627    -2.34171  5.99891e-05
1900    0.158285    0.796354    -2.78134   0.0004374
1910    0.154797     0.79551    -1.81811  -7.72215e-05
1920     0.15983    0.796728    -1.68107  -0.000104444
1930    0.156886    0.796016    -1.84601  0.000191236
1940    0.156005    0.795803    -1.51564  -0.000132517
1950    0.159537    0.796657   -0.690129  -1.21892e-06
1960    0.156029    0.795808    -1.95661  0.000268064
1970    0.154175     0.79536    -1.76347  0.000137234
1980    0.153285    0.795144    -2.12167  0.00039441
1990    0.146287    0.793451    -2.42382  -6.34871e-05
2000    0.154554    0.795452    -3.00402  0.000271168
2010    0.140864    0.792139    -3.14029   0.0003401
2020    0.147752    0.793806    -2.53474  -0.000285333
2030    0.146571     0.79352      -2.921  0.000230088
2040    0.143151    0.792693     -2.1769  2.08788e-05
2050    0.146153    0.793419    -2.09476  -0.000608595
2060    0.155322    0.795637    -2.20601  -2.81096e-05
2070    0.146715    0.793555    -2.83878  0.000721477
2080    0.140893    0.792146    -3.88495  0.000238685
2090    0.141941      0.7924    -1.76565  -4.161e-05
2100    0.141725    0.792348    -2.78357  0.000211783
2110    0.137706    0.791375    -2.20509  0.000473011
2120    0.132265    0.790059     -2.9765  9.98743e-05
2130    0.135708    0.790892    -2.39839  2.28621e-05
2140    0.131808    0.789948    -2.26113  0.000178241
2150    0.132143     0.79003    -2.06831  -0.000175482
2160    0.135317    0.790797    -2.06904  0.000193294
2170    0.128278    0.789094    -2.28836  0.00025003
2180    0.130317    0.789588     -2.2062  -0.00013296
2190    0.130937    0.789738    -1.76635  -0.000112032
2200    0.132557     0.79013    -2.95054  0.000358552
2210    0.123766    0.788003   -0.526312  0.000351703
2220    0.125523    0.788428    -1.35298  9.57724e-05
2230     0.12185    0.787539    -1.73869  -0.00024094
2240    0.130342    0.789594    -1.62941  -0.000269419
2250    0.127239    0.788843    -1.76638  0.000159986
2260    0.127142     0.78882    -1.84956  0.000146141
2270    0.124316    0.788136    -1.93234   0.0001895
2280    0.123352    0.787903    -1.87692  0.000154098
2290    0.121234     0.78739    -1.05063  -0.000148678
2300    0.126326    0.788622    -1.35416  -0.00017749
2310    0.124784    0.788249    -1.24415  8.20745e-05
2320    0.124684    0.788225    -1.65685  3.17063e-05
2330     0.12415    0.788095    -1.49247  -1.90679e-05
2340    0.125066    0.788317   -0.803956  0.000111774
2350    0.121914    0.787555    -1.96046  0.000148198
2360    0.122102      0.7876    -1.18962  -0.000106193
2370    0.124038    0.788068    -1.27165  -0.000179252
2380    0.125687    0.788467    -1.71297  7.59035e-05
2390     0.12252    0.787701    -1.85066  0.000192678
2400    0.121833    0.787535    -1.74092  0.000259269
2410    0.117335    0.786447   -0.253321  0.000252445
2420    0.116784    0.786314   -0.886819  -0.000143086
2430    0.120196    0.787139    -1.68564  -3.29997e-05
2440    0.117444    0.786473   -0.474118  0.000106378
2450    0.118069    0.786624   -0.887491  -9.2065e-05
2460    0.119286    0.786919   -0.776837  -5.53817e-05
2470    0.119176    0.786892    -1.32841  0.000217819
2480    0.114929    0.785865    -1.24555  0.000269862
2490    0.113779    0.785586    -1.27272  0.000233721
2500    0.110255    0.784734    -1.35556  0.000390062
2510    0.105978    0.783699    -1.63003  -0.000128932
2520    0.112834    0.785358    -2.53996  -0.000247678
2530    0.110931    0.784897    -1.57609  -4.78063e-05
2540     0.11379    0.785589    -1.71397  -0.000360855
2550    0.118148    0.786644    -1.43893  -1.06674e-05
2560    0.114003    0.785641    -1.90662  0.00048236
2570    0.108501     0.78431    -2.09966  -1.82059e-05
2580    0.114367    0.785729    -2.48572  -0.000182442
2590     0.11215    0.785192    -1.90705  0.000402207
2600    0.106323    0.783782    -1.21819  0.000327868
2610    0.105593    0.783606    -2.37469  -0.000401295
2620    0.114349    0.785724    -2.10035  -0.000296247
2630    0.111518    0.785039    -1.30154  0.000306225
2640    0.108224    0.784243    -2.07267  0.00011808
2650    0.109156    0.784468    -2.73305  -0.000138775
2660       0.111    0.784914    -2.37585  0.000126272
2670    0.106631    0.783857    -1.38418  0.000346382
2680    0.104072    0.783238    -1.79715  0.000248552
2690     0.10166    0.782654     -1.9901  9.69671e-05
2700    0.102133    0.782769    -2.45814  -3.96885e-05
2710    0.102453    0.782846    -1.52193  4.41354e-05
2720     0.10125    0.782555     -1.6869  -0.000146978
2730    0.105393    0.783557    -1.19137  0.000120938
2740   0.0988314     0.78197     -1.4389  0.000143505
2750    0.102523    0.782863    -1.44038  0.000136914
2760   0.0960931    0.781307    -2.56837  0.000167377
2770   0.0991753    0.782053    -1.35749  -0.000131692
2780    0.098727    0.781945     -1.4406  -1.66785e-05
2790   0.0995089    0.782134    -2.21147  -7.06438e-05
2800     0.10014    0.782287    -1.63379  6.38068e-06
2810   0.0993813    0.782103     -1.4134  2.1803e-05
2820   0.0997038    0.782181    -1.85443  0.000192469
2830   0.0955319    0.781172    -1.11036  0.000324628
2840   0.0932112     0.78061    -1.49664   3.029e-05
2850   0.0949261    0.781025    -2.07453  0.000217474
2860   0.0888617    0.779558    -1.63358  0.000357874
2870   0.0877686    0.779293     -1.7713  0.000281134
2880   0.0832391    0.778198    -2.29503  0.000461457
2890   0.0785395    0.777061    -2.10087  -0.000343426
2900   0.0901076    0.779859    -1.27668  -0.000311966
2910   0.0847788     0.77857    -1.22115  0.000313899
2920   0.0838296     0.77834    -1.00121  0.000165812
2930   0.0814626    0.777768    -1.99228  0.000134697
2940   0.0811356    0.777689   -0.918966  0.000150969
2950   0.0784432    0.777037    -1.41461  0.000159124
2960   0.0779532    0.776919    -1.60727  3.32095e-05
2970    0.077779    0.776877    -1.35852  9.63286e-06
2980   0.0777605    0.776872    -1.46976  0.000390222
2990   0.0699746    0.774988    -2.21259  0.000295496
3000   0.0718506    0.775442    -1.77178  -0.00017999
3010   0.0735744    0.775859    -2.81897  5.03436e-05
3020   0.0708437    0.775199    -2.84588  0.000145882
3030   0.0706567    0.775153    -2.37819  8.25919e-05
3040   0.0691919    0.774799    -1.69007  9.07097e-05
3050   0.0688425    0.774714      -1.635  -0.000165122
3060   0.0724943    0.775598    -1.41482  0.000139353
3070   0.0660555     0.77404    -2.01999  7.4733e-05
3080   0.0709997    0.775236    -1.99312  -0.000221699
3090   0.0704895    0.775113     -2.4611  0.000204109
3100   0.0669175    0.774249    -1.91025  -0.000110073
3110   0.0726909    0.775645    -2.07584  0.00011643
3120   0.0645889    0.773685    -1.63481  0.000520189
3130   0.0622871    0.773128    -1.99282  -7.7283e-05
3140   0.0661345    0.774059    -1.22217  -0.000336712
3150   0.0690214    0.774758    -2.37902  0.000109076
3160    0.063953    0.773531    -1.85564  1.93637e-05
3170   0.0686341    0.774664    -2.79242  -0.000167315
3180   0.0672993    0.774341    -2.15914  0.000411113
3190   0.0604119    0.772675     -1.4975  3.33823e-06
3200   0.0672326    0.774325    -2.10407  -0.000372065
3210   0.0678532    0.774475    -2.21493  0.000191877
3220    0.063395    0.773396    -2.13202  0.000274125
3230   0.0623707    0.773149    -1.93936  0.000176578
3240   0.0598635    0.772542    -3.01295  2.05465e-05
3250   0.0619597    0.773049    -1.38827  -2.85037e-05
3260   0.0604335     0.77268    -2.40748  1.24166e-05
3270   0.0617114    0.772989    -2.07751  0.000227612
3280   0.0558813    0.771579    -2.40703  0.000153285
3290   0.0586457    0.772247    -2.13199  -6.95473e-05
3300   0.0572722    0.771915    -2.29766  0.00011266
3310   0.0563925    0.771702    -1.82949  0.000246113
3320     0.05235    0.770724    -2.29713  -1.16529e-05
3330   0.0566256    0.771759    -1.60909  -0.000436549
3340    0.061081    0.772837    -1.74749  0.000272474
3350   0.0511761     0.77044    -1.88477  0.000648788
3360   0.0481052    0.769697    -1.77431  -1.93147e-05
3370   0.0515624    0.770534    -1.05902   0.0001658
3380   0.0447892    0.768895   -0.700535  0.000157079
3390   0.0484208    0.769774    -1.80253  -0.000363664
3400   0.0520625    0.770655   0.0146689  0.000183452
3410   0.0447517    0.768886    -1.16909  0.000191569
3420   0.0482311    0.769728    -1.85774  0.000142199
3430   0.0419078    0.768198    -1.25163  0.000396085
3440   0.0403094    0.767811    -1.36182  0.000321278
3450   0.0354822    0.766643    -1.69217  7.56327e-06
3460   0.0401581    0.767774    -1.63775  -0.000161883
3470   0.0387199    0.767426   -0.866744  0.00029743
3480   0.0342095    0.766335    -2.02295  0.000255426
3490   0.0336114    0.766191   -0.949445  0.00020523
3500   0.0301049    0.765342    -0.34304  6.85988e-05
3510   0.0322394    0.765859       -1.17  -0.000136533
3520   0.0328356    0.766003    -1.69319  0.00015501
3530   0.0291392    0.765109    -1.61003  0.00012063
3540    0.030423    0.765419    -0.39908  -0.000102646
3550   0.0311921    0.765605   -0.895235  0.000104186
3560   0.0283393    0.764915    -1.63877  -0.000137752
3570   0.0339471    0.766272   -0.895692  0.000139415
3580    0.025551     0.76424    -1.36317  0.000407504
3590   0.0257971      0.7643    -1.61154  0.000114249
3600    0.023266    0.763688    -1.30807  1.35498e-06
3610     0.02577    0.764293    -1.00589  -4.17949e-05
3620   0.0241019     0.76389    -1.17129  0.000106046
3630   0.0236491     0.76378    -1.30866  0.000246274
3640   0.0191764    0.762698    -1.55668  0.000264233
3650   0.0183644    0.762502    -1.19865  0.00060724
3660   0.0070316     0.75976    -1.55642  0.000221995
3670   0.0139245    0.761427    -1.25397  -0.000285851
3680   0.0127486    0.761143    -1.14401  0.000161772
3690   0.0106891    0.760645    -1.28176  0.000276921
3700  0.00721021    0.759803    -1.97008  0.000109815
3710  0.00849276    0.760113    -1.41948  0.000252051
3720   0.0021692    0.758583    -1.30904  0.000145931
3730  0.00557414    0.759407    -1.97014  -0.000145783
3740  0.00508487    0.759289    -1.77754  0.000129043
3750  0.00299327    0.758783    -2.63164  0.000414353
3760  -0.00320218    0.757284    -2.16296  7.64208e-05
3770  0.00146486    0.758413    -1.94253  -0.000208346
3780  0.000964745    0.758292    -1.63982  0.000112685
3790  -0.000788844    0.757868    -0.75913  0.000184659
3800  -0.00272843    0.757398    -1.22703  0.000257064
3810  -0.00593013    0.756624    -1.28219  -0.000182836
3820  0.000928284    0.758283    -1.50288  -0.000236653
3830  -0.00119706    0.757769    -1.33764  0.000375329
3840  -0.0065783    0.756467   -0.923779  0.000538924
3850  -0.0119755    0.755161    -1.14444  0.000205747
3860  -0.0106932    0.755471    -1.58507  -0.000155638
3870  -0.00886279    0.755914   -0.429077  -5.6207e-05
3880  -0.00956911    0.755743    -1.80603  6.16392e-05
3890  -0.0100956    0.755616    -0.56693  0.000171232
3900  -0.0129938    0.754915   -0.429211  3.46751e-05
3910  -0.0107891    0.755448   -0.952565  -3.7964e-05
3920  -0.0122345    0.755099    -1.44799  0.000273041
3930  -0.0162499    0.754127   -0.952538  0.000145266
3940  -0.0151398    0.754396   -0.594936  0.000219556
3950   -0.020641    0.753065    -0.95243  8.21613e-06
3960  -0.0153041    0.754356   -0.980975  -0.000101426
3970  -0.0186125    0.753555   -0.925769  0.000377448
3980  -0.0228531    0.752529    -1.14592  0.000591313
3990  -0.0304387    0.750694   -0.925527  0.000315279
4000  -0.0291587    0.751004    -1.20075  7.57678e-05
4010  -0.0319541    0.750328    -1.33842  9.42326e-05
4020  -0.0310433    0.750548   -0.512907  0.000253172
4030  -0.0370175    0.749102    -1.53096  -0.000278116
4040   -0.025481    0.751894    -1.39451  -0.000221502
4050  -0.0325875    0.750174    -1.44885  0.000580793
4060  -0.0370969    0.749083    -1.11832  0.000104974
4070   -0.034687    0.749666    -1.33863  6.84017e-05
4080  -0.0384649    0.748752   -0.265475  -4.47143e-05
4090  -0.0337927    0.749883    -0.70594  -0.000147742
4100  -0.0355101    0.749467    -0.48638  0.000124757
4110  -0.0362878    0.749279   -0.678767  -0.000111022
4120  -0.0332896    0.750004   -0.707392  5.93973e-05
4130  -0.0374758    0.748992   -0.734511  0.000504656
4140  -0.0433827    0.747562   -0.734134  0.000202286
4150  -0.0415215    0.748013   -0.761603  0.000355916
4160   -0.050501     0.74584   -0.458239  0.000117883
4170  -0.0438791    0.747442    -1.42246  -3.31845e-05
4180  -0.0498374    0.746001    -1.09195  0.000319492
4190   -0.050269    0.745896    -1.47748  0.00042656
4200  -0.0583685    0.743937    -1.00887  0.000264184
4210  -0.0555527    0.744618    -2.00094  -0.000320489
4220  -0.0519588    0.745488    -1.23013  0.000140807
4230  -0.0583688    0.743937    -1.14724  0.000121135
4240  -0.0543815    0.744901   -0.789206  4.51701e-05
4250  -0.0592722    0.743718    -0.70672  0.000267165
4260  -0.0597248    0.743609   -0.679278  5.50615e-05
4270  -0.0603734    0.743452   -0.211049  6.50145e-05
4280   -0.061025    0.743294   -0.927463  0.00012371
4290  -0.0628476    0.742853   -0.211345  2.65328e-05
4300  -0.0615557    0.743166    0.118197  0.00019285
4310  -0.0667046     0.74192   -0.431738  0.000134266
4320   -0.064241    0.742516  -0.0191729  -8.01779e-05
4330  -0.0651011    0.742308   -0.459637  3.70651e-05
4340  -0.0649823    0.742337    0.200817  2.74446e-05
4350    -0.06565    0.742175    0.173564  -0.0002386
4360  -0.0602103    0.743491   0.0904595  0.000294153
4370   -0.071533    0.740752   -0.955739  0.000679386
4380  -0.0737981    0.740204   -0.459799  0.000157584
4390  -0.0746847    0.739989    -1.06593  -0.000278411
4400  -0.0682298    0.741551    0.971416  9.54643e-06
4410  -0.0748756    0.739943  -0.0200876  0.000357012
4420  -0.0753701    0.739823  0.00794644  -8.01656e-05
4430  -0.0732723    0.740331  0.00786544  -0.000460015
4440  -0.0661698    0.742049   -0.268299  -0.000270959
4450  -0.0678532    0.741642   -0.681644  0.00049963
4460  -0.0761624    0.739632    -1.06647  0.00020943
4470  -0.0720418    0.740629    0.419652  0.000301939
4480  -0.0822011    0.738171   -0.157376  0.000372311
4490   -0.079488    0.738827    0.172031  -2.93292e-05
4500  -0.0816146    0.738313  -0.0200864  -0.0001311
4510   -0.076866    0.739461    0.171924  -5.99515e-05
4520  -0.0804155    0.738603   0.0349306  -8.12743e-05
4530  -0.0752405    0.739855   0.0619689  -7.06192e-05
4540  -0.0790031    0.738944   0.0614849  0.00044835
4550  -0.0842075    0.737685  -0.0754548  -5.06267e-05
4560  -0.0779906    0.739189   -0.324123  0.000185608
4570  -0.0879197    0.736787   -0.516269  0.000287329
4580  -0.0837372    0.737799    0.088873  -0.000223916
4590  -0.0834413    0.737871   -0.902549  0.000155613
4600  -0.0868495    0.737046    0.226188  0.000269333
4610   -0.088828    0.736567    0.116127  0.000322115
4620  -0.0932918    0.735487    0.116476  0.000519659
4630  -0.0992212    0.734053    0.804561  -0.000339053
4640  -0.0865107    0.737128    0.225946  -0.000390517
4650  -0.0914108    0.735942   0.0607862  0.000366041
4660  -0.0938315    0.735357    0.969453  7.56938e-05
4670  -0.0929247    0.735576   -0.242363  9.72383e-05
4680  -0.0957763    0.734886    0.748844  0.000526372
4690   -0.103452    0.733029    0.694041  0.000339089
4700   -0.102558    0.733245    0.914032  0.000141546
4710   -0.106283    0.732344    0.198908  0.000257545
4720   -0.107709    0.731999   0.0887387  -0.000363442
4730  -0.0990142    0.734103    0.445372  -0.000374516
4740   -0.100219    0.733811   -0.491059  0.000152472
4750   -0.102064    0.733365    0.610803  -1.66785e-05
4760  -0.0998851    0.733892    0.307411  0.000196065
4770   -0.105985    0.732416  -0.0782508  0.000419588
4780   -0.108277    0.731862  -0.0784924  0.000219002
4790   -0.110365    0.731357   -0.160764  0.000348057
4800   -0.115238    0.730178   0.0869635  0.000220578
4810   -0.114777    0.730289   0.0868292  2.88855e-05
4820   -0.115816    0.730038    0.334799  0.000319036
4830   -0.121157    0.728746    0.196892  6.14423e-05
4840   -0.117045    0.729741    0.141497  0.000310807
4850   -0.127373    0.727242    0.307196  0.000256461
4860   -0.122174      0.7285   0.0310316  -0.000271784
4870   -0.121938    0.728557    0.526353  0.00041046
4880   -0.130383    0.726514    0.498857  0.000541733
4890   -0.132772    0.725935    0.416505  -2.21968e-05
4900   -0.129939    0.726621     1.21465  -0.000163706
4910   -0.129498    0.726728    0.691325  0.00020741
4920   -0.134087    0.725617    0.526057  0.000437843
4930   -0.138255    0.724609    0.498884  0.000219963
4940   -0.138486    0.724553     1.40758  -8.68052e-05
4950   -0.136519    0.725029    0.195144  0.000431278
4960   -0.147112    0.722466    0.719385  8.91328e-05
4970   -0.138302    0.724598    0.553122  -6.34871e-05
4980   -0.145842    0.722773    0.911504  4.56259e-05
4990   -0.139214    0.724377    0.497889  0.000154739
