Time   Number   
ps   
0          36          28
10          31          22
20          34          24
30          34          25
40          32          26
50          35          21
60          31          24
70          30          29
80          34          25
90          34          22
100          31          27
110          30          28
120          36          23
130          36          25
140          35          28
150          33          26
160          35          24
170          31          25
180          31          28
190          37          25
200          32          27
210          35          24
220          32          28
230          30          28
240          35          22
250          36          23
260          36          22
270          37          28
280          37          25
290          35          26
300          32          21
310          37          25
320          34          25
330          34          23
340          36          24
350          32          30
360          33          25
370          35          25
380          36          22
390          32          24
400          33          22
410          36          22
420          35          20
430          31          25
440          29          25
450          32          23
460          33          19
470          31          23
480          33          23
490          35          26
500          35          27
510          35          24
520          37          26
530          36          21
540          39          28
550          34          26
560          36          28
570          33          26
580          35          24
590          36          22
600          33          26
610          38          26
620          35          26
630          35          22
640          38          28
650          37          23
660          35          26
670          36          24
680          34          25
690          35          23
700          35          20
710          33          25
720          32          24
730          36          24
740          33          23
750          34          24
760          31          29
770          36          26
780          34          25
790          35          24
800          31          25
810          34          23
820          30          28
830          33          22
840          32          30
850          33          26
860          34          30
870          38          26
880          35          27
890          38          25
900          36          23
910          32          24
920          32          24
930          30          26
940          35          30
950          36          28
960          38          23
970          32          27
980          31          27
990          31          28
1000          35          26
1010          35          31
1020          34          26
1030          33          29
1040          32          29
1050          34          25
1060          32          32
1070          33          26
1080          36          25
1090          32          24
1100          38          28
1110          35          24
1120          36          25
1130          36          26
1140          37          23
1150          34          25
1160          35          31
1170          39          26
1180          34          31
1190          36          26
1200          38          25
1210          35          26
1220          34          28
1230          38          27
1240          39          25
1250          38          25
1260          35          28
1270          35          25
1280          33          28
1290          34          21
1300          36          26
1310          35          22
1320          35          28
1330          35          30
1340          36          29
1350          35          28
1360          32          30
1370          38          30
1380          35          31
1390          34          29
1400          36          27
1410          36          25
1420          34          28
1430          34          26
1440          32          27
1450          33          27
1460          36          26
1470          33          24
1480          36          27
1490          34          26
1500          35          22
1510          35          31
1520          32          28
1530          37          27
1540          37          30
1550          38          30
1560          37          27
1570          33          26
1580          37          24
1590          35          24
1600          41          27
1610          33          33
1620          38          27
1630          35          29
1640          40          25
1650          37          29
1660          37          22
1670          37          28
1680          38          23
1690          40          28
1700          34          32
1710          38          28
1720          35          28
1730          37          30
1740          37          24
1750          36          31
1760          34          30
1770          37          28
1780          39          28
1790          36          24
1800          36          28
1810          39          29
1820          38          32
1830          39          32
1840          33          31
1850          38          30
1860          36          33
1870          38          31
1880          33          27
1890          36          30
1900          38          31
1910          32          38
1920          37          31
1930          38          28
1940          41          30
1950          37          30
1960          34          26
1970          37          21
1980          37          31
1990          34          28
2000          33          29
2010          35          27
2020          36          27
2030          36          25
2040          35          31
2050          36          24
2060          34          31
2070          32          30
2080          36          29
2090          37          27
2100          34          27
2110          37          30
2120          35          28
2130          33          33
2140          36          31
2150          37          30
2160          37          28
2170          37          29
2180          36          31
2190          33          33
2200          35          32
2210          38          25
2220          39          29
2230          34          30
2240          38          27
2250          38          27
2260          36          29
2270          34          29
2280          31          25
2290          34          24
2300          33          26
2310          34          20
2320          35          28
2330          35          24
2340          37          33
2350          35          30
2360          36          24
2370          33          31
2380          35          30
2390          34          26
2400          38          21
2410          32          25
2420          35          27
2430          35          26
2440          34          26
2450          34          31
2460          38          29
2470          37          27
2480          37          24
2490          35          23
2500          36          26
2510          37          24
2520          36          31
2530          35          26
2540          34          30
2550          34          24
2560          34          27
2570          37          31
2580          30          29
2590          37          24
2600          36          26
2610          38          27
2620          35          26
2630          35          27
2640          38          32
2650          36          30
2660          38          25
2670          34          34
2680          37          28
2690          33          26
2700          36          25
2710          35          28
2720          33          32
2730          37          28
2740          37          32
2750          37          23
2760          36          27
2770          37          27
2780          37          31
2790          38          28
2800          38          30
2810          35          24
2820          37          25
2830          37          29
2840          38          29
2850          40          29
2860          40          28
2870          39          31
2880          33          33
2890          34          31
2900          38          25
2910          38          29
2920          37          24
2930          34          26
2940          35          30
2950          32          31
2960          38          26
2970          36          26
2980          37          26
2990          39          26
3000          34          29
3010          37          26
3020          36          27
3030          39          26
3040          36          26
3050          34          28
3060          39          27
3070          38          26
3080          38          27
3090          37          22
3100          39          26
3110          38          28
3120          40          28
3130          38          31
3140          37          33
3150          32          26
3160          34          26
3170          40          26
3180          37          23
3190          37          23
3200          38          27
3210          35          23
3220          35          27
3230          37          26
3240          33          31
3250          39          22
3260          33          25
3270          36          22
3280          37          23
3290          32          31
3300          36          24
3310          34          29
3320          40          27
3330          33          24
3340          37          28
3350          33          27
3360          35          23
3370          40          24
3380          33          32
3390          39          25
3400          36          25
3410          36          26
3420          38          27
3430          36          24
3440          38          32
3450          35          29
3460          37          27
3470          35          26
3480          35          33
3490          37          27
3500          32          28
3510          34          22
3520          38          26
3530          34          26
3540          38          26
3550          41          25
3560          35          26
3570          36          26
3580          36          25
3590          34          28
3600          34          21
3610          37          25
3620          37          28
3630          34          32
3640          36          28
3650          37          26
3660          39          27
3670          32          25
3680          34          27
3690          34          24
3700          35          27
3710          32          28
3720          39          25
3730          35          24
3740          36          26
3750          38          29
3760          34          31
3770          36          25
3780          32          24
3790          35          28
3800          34          30
3810          32          29
3820          32          28
3830          30          24
3840          29          27
3850          30          27
3860          35          25
3870          34          27
3880          32          24
3890          32          31
3900          37          25
3910          35          24
3920          37          30
3930          36          31
3940          36          27
3950          36          28
3960          36          30
3970          40          29
3980          40          27
3990          36          26
4000          38          25
4010          34          25
4020          36          25
4030          34          28
4040          30          26
4050          35          26
4060          32          34
4070          35          29
4080          36          23
4090          29          32
4100          33          28
4110          36          28
4120          35          30
4130          36          25
4140          36          24
4150          39          26
4160          38          29
4170          36          26
4180          35          28
4190          39          29
4200          30          28
4210          34          31
4220          35          33
4230          33          30
4240          37          29
4250          38          31
4260          35          34
4270          39          27
4280          35          29
4290          35          27
4300          34          31
4310          37          21
4320          33          30
4330          33          23
4340          31          31
4350          35          30
4360          36          29
4370          35          26
4380          37          26
4390          30          32
4400          34          30
4410          41          28
4420          40          30
4430          38          29
4440          41          30
4450          40          31
4460          40          30
4470          37          31
4480          38          28
4490          37          28
4500          36          27
4510          39          27
4520          38          29
4530          38          26
4540          34          31
4550          37          27
4560          39          27
4570          34          27
4580          38          28
4590          37          26
4600          32          23
4610          36          31
4620          34          32
4630          38          27
4640          36          27
4650          38          33
4660          37          32
4670          35          30
4680          39          31
4690          36          30
4700          36          29
4710          35          29
4720          38          32
4730          34          27
4740          33          29
4750          38          24
4760          36          28
4770          37          29
4780          37          26
4790          39          29
4800          35          26
4810          38          24
4820          36          27
4830          38          27
4840          37          28
4850          39          25
4860          38          29
4870          39          29
4880          38          26
4890          39          28
4900          39          27
4910          35          27
4920          30          29
4930          34          27
4940          39          29
4950          36          27
4960          36          28
4970          34          28
4980          35          26
4990          35          25
5000          34          29
5010          40          25
5020          39          28
5030          38          29
5040          38          31
5050          39          26
5060          35          30
5070          41          28
5080          35          31
5090          34          24
5100          42          30
5110          39          28
5120          40          27
5130          39          28
5140          40          28
5150          39          32
5160          41          31
5170          42          30
5180          40          28
5190          40          28
5200          41          32
5210          38          29
5220          37          32
5230          38          31
5240          39          30
5250          39          26
5260          37          33
5270          40          32
5280          38          30
5290          39          30
5300          36          28
5310          38          27
5320          35          29
5330          38          32
5340          40          23
5350          36          30
5360          40          28
5370          42          28
5380          38          28
5390          39          27
5400          42          29
5410          38          28
5420          36          28
5430          37          28
5440          37          27
5450          40          27
5460          37          30
5470          37          28
5480          35          26
5490          34          30
5500          34          27
5510          35          27
5520          36          23
5530          38          26
5540          42          24
5550          37          26
5560          40          29
5570          33          29
5580          33          33
5590          40          30
5600          39          29
5610          40          25
5620          38          28
5630          35          32
5640          38          27
5650          39          28
5660          36          26
5670          35          27
5680          35          28
5690          37          34
5700          38          30
5710          39          26
5720          39          35
5730          38          29
5740          41          27
5750          41          27
5760          44          31
5770          42          32
5780          42          25
5790          37          30
5800          41          37
5810          41          32
5820          38          32
5830          37          32
5840          37          30
5850          37          31
5860          41          25
5870          37          33
5880          39          28
5890          38          32
5900          41          27
5910          40          31
5920          41          34
5930          40          36
5940          39          32
5950          42          32
5960          38          36
5970          43          27
5980          39          31
5990          40          26
6000          45          25
6010          41          32
6020          41          29
6030          41          29
6040          39          31
6050          40          27
6060          37          34
6070          39          32
6080          44          27
6090          37          31
6100          39          32
6110          40          32
6120          39          29
6130          44          28
6140          43          27
6150          40          30
6160          40          30
6170          41          35
6180          41          32
6190          35          32
6200          41          28
6210          38          32
6220          40          31
6230          39          32
6240          42          29
6250          41          31
6260          39          30
6270          39          31
6280          38          30
6290          40          28
6300          42          31
6310          41          35
6320          42          26
6330          40          32
6340          42          30
6350          41          29
6360          39          30
6370          39          35
6380          43          29
6390          43          33
6400          42          31
6410          39          31
6420          39          31
6430          41          31
6440          39          31
6450          41          30
6460          38          31
6470          38          27
6480          41          31
6490          38          32
6500          34          35
6510          39          30
6520          37          26
6530          37          33
6540          37          29
6550          41          29
6560          40          29
6570          40          29
6580          44          24
6590          37          33
6600          36          29
6610          38          32
6620          41          31
6630          44          34
6640          42          27
6650          42          26
6660          42          28
6670          42          24
6680          36          30
6690          41          30
6700          39          29
6710          40          33
6720          39          25
6730          38          33
6740          39          29
6750          40          28
6760          40          31
6770          39          25
6780          39          30
6790          38          31
6800          39          31
6810          40          29
6820          38          31
6830          38          27
6840          34          30
6850          34          30
6860          34          31
6870          35          26
6880          38          25
6890          38          25
6900          33          31
6910          34          25
6920          36          26
6930          36          37
6940          40          28
6950          37          28
6960          36          27
6970          33          28
6980          38          26
6990          37          28
7000          38          32
7010          39          26
7020          34          27
7030          36          25
7040          35          28
7050          39          32
7060          37          29
7070          39          34
7080          37          35
7090          37          31
7100          40          29
7110          40          29
7120          34          31
7130          44          27
7140          38          31
7150          37          31
7160          41          34
7170          42          31
7180          39          33
7190          42          33
7200          40          33
7210          44          30
7220          43          35
7230          38          37
7240          42          31
7250          39          30
7260          44          33
7270          36          32
7280          39          31
7290          41          28
7300          37          29
7310          38          26
7320          38          34
7330          39          30
7340          35          29
7350          38          28
7360          43          27
7370          36          34
7380          41          25
7390          41          26
7400          36          28
7410          34          27
7420          37          27
7430          35          31
7440          39          25
7450          32          29
7460          36          28
7470          34          27
7480          40          28
7490          39          26
7500          37          28
7510          39          29
7520          39          30
7530          38          29
7540          43          29
7550          36          26
7560          43          31
7570          40          31
7580          39          28
7590          41          27
7600          39          29
7610          42          29
7620          36          34
7630          39          26
7640          44          29
7650          41          32
7660          39          27
7670          38          28
7680          39          30
7690          38          24
7700          36          26
7710          43          27
7720          39          24
7730          40          25
7740          39          27
7750          40          26
7760          40          28
7770          35          28
7780          39          28
7790          38          26
7800          39          31
7810          37          27
7820          41          28
7830          38          31
7840          45          27
7850          42          34
7860          45          28
7870          39          32
7880          39          29
7890          40          32
7900          45          28
7910          40          30
7920          38          29
7930          42          29
7940          41          32
7950          35          31
7960          40          28
7970          36          30
7980          41          31
7990          40          32
8000          38          34
8010          37          35
8020          38          38
8030          39          31
8040          40          31
8050          37          39
8060          39          32
8070          38          32
8080          41          28
8090          41          33
8100          43          27
8110          42          31
8120          39          30
8130          35          34
8140          36          33
8150          39          33
8160          39          30
8170          40          27
8180          34          29
8190          37          29
8200          38          27
8210          39          30
8220          37          28
8230          39          29
8240          35          32
8250          36          28
8260          33          30
8270          37          29
8280          33          32
8290          37          26
8300          35          29
8310          33          28
8320          37          28
8330          33          24
8340          37          28
8350          35          27
8360          35          23
8370          32          23
8380          41          27
8390          37          31
8400          38          28
8410          39          25
8420          40          34
8430          34          36
8440          39          29
8450          40          26
8460          37          33
8470          38          29
8480          36          30
8490          36          34
8500          35          32
8510          40          29
8520          41          29
8530          36          33
8540          37          32
8550          38          32
8560          38          27
8570          41          24
8580          38          33
8590          39          28
8600          34          29
8610          39          30
8620          33          32
8630          34          28
8640          33          27
8650          37          26
8660          33          31
8670          38          22
8680          38          25
8690          39          26
8700          37          27
8710          38          26
8720          40          28
8730          40          29
8740          38          30
8750          39          29
8760          40          24
8770          37          33
8780          42          30
8790          40          28
8800          41          28
8810          40          26
8820          40          33
8830          37          30
8840          37          28
8850          39          28
8860          34          28
8870          41          25
8880          37          29
8890          37          23
8900          40          28
8910          36          27
8920          40          27
8930          34          28
8940          37          30
8950          38          30
8960          39          30
8970          36          34
8980          41          28
8990          41          27
9000          34          37
9010          39          26
9020          42          29
9030          44          25
9040          39          29
9050          40          28
9060          42          28
9070          41          30
9080          41          28
9090          40          30
9100          42          28
9110          40          30
9120          39          31
9130          38          30
9140          40          34
9150          40          29
9160          40          33
9170          42          26
9180          39          34
9190          45          32
9200          40          30
9210          41          26
9220          44          31
9230          43          30
9240          43          28
9250          40          29
9260          36          33
9270          41          30
9280          42          27
9290          39          31
9300          39          29
9310          39          30
9320          37          33
9330          42          28
9340          39          34
9350          41          26
9360          40          30
9370          42          31
9380          41          30
9390          41          27
9400          36          30
9410          40          31
9420          42          29
9430          43          27
9440          40          34
9450          39          27
9460          39          29
9470          39          28
9480          41          31
9490          42          23
9500          39          28
9510          37          27
9520          43          26
9530          40          29
9540          40          28
9550          41          28
9560          37          34
9570          40          28
9580          36          32
9590          41          26
9600          41          29
9610          39          32
9620          44          32
9630          44          26
9640          42          27
9650          39          31
9660          42          27
9670          41          28
9680          39          28
9690          42          28
9700          42          27
9710          37          32
9720          36          31
9730          43          31
9740          35          30
9750          43          31
9760          39          28
9770          40          29
9780          40          27
9790          40          31
9800          37          29
9810          38          31
9820          44          28
9830          41          29
9840          40          31
9850          38          27
9860          39          33
9870          41          27
9880          37          26
9890          39          32
9900          37          26
9910          41          27
9920          40          29
9930          39          25
9940          41          28
9950          42          30
9960          42          31
9970          39          32
9980          43          31
9990          41          33
10000          39          28
