Time   C(t)   
ps   
0           1           1  1.04775e-09   0.0384953
10    0.619875    0.842513   -0.277588   0.0211263
20    0.577475    0.824947   0.0959465  0.00375725
30     0.54473    0.811381    -0.34436  0.00277202
40    0.522034    0.801978    0.161363  0.00219098
50     0.50091    0.793226  -0.0371458   0.0019682
60     0.48267    0.785669    -1.58023  0.00159572
70    0.468996    0.780004   0.0279695  0.00147095
80    0.453251    0.773481     -0.3029  0.00128779
90     0.44324    0.769333    0.576895    0.001267
100    0.427911    0.762983    -1.58128  0.00130611
110    0.417118    0.758511    -1.67077  0.00104095
120    0.407092    0.754357    -1.45086  0.000990427
130     0.39731    0.750304  -0.0192775  0.000892447
140    0.389243    0.746962    0.112223  0.000960252
150    0.378105    0.742347   -0.481647  0.000893345
160    0.371377     0.73956   -0.240797  0.000755449
170    0.362996    0.736088   -0.747251  0.000865285
180    0.354071     0.73239   -0.438617  0.000604993
190    0.350896    0.731075   -0.527604  0.000550897
200    0.343053    0.727825   -0.879548  0.000506622
210    0.340763    0.726877   -0.792885  0.000436358
220    0.334326     0.72421  -0.0215797  0.000678904
230    0.327185    0.721251   -0.616181  0.000682861
240    0.320669    0.718552   -0.836345  0.000535159
250    0.316482    0.716817    -1.21143  0.000464383
260    0.311381    0.714704    0.396405  0.000505313
270    0.306376     0.71263   -0.926107  0.000503767
280    0.301306    0.710529     -1.4774  0.000341636
290    0.299543    0.709799   -0.309979  0.000312948
300    0.295047    0.707936    -0.64059  0.000549401
310    0.288555    0.705247    -1.54329  0.000413677
320    0.286773    0.704509    -1.43454  0.000312667
330    0.282302    0.702656     -1.4122  0.000469074
340    0.277392    0.700622    -0.88398  0.000405419
350    0.274193    0.699297   -0.510102  0.00031476
360    0.271096    0.698014   -0.554121  0.000275025
370    0.268693    0.697018   -0.400901  0.000324227
380    0.264612    0.695327   -0.687407  0.00034098
390    0.261873    0.694193   -0.577282  0.000409405
400    0.256424    0.691935   -0.070677  0.000645686
410    0.248959    0.688842   -0.136288  0.000408375
420    0.248256    0.688551    0.325394  0.000189826
430    0.245163    0.687269   -0.688182  0.000342211
440    0.241412    0.685715   -0.511801  0.000247689
450    0.240209    0.685217   -0.512705  0.000207565
460    0.237261    0.683996   -0.446148  0.000314222
470    0.233925    0.682613    -1.50443  0.000535734
480    0.226546    0.679556     -1.3936  0.000421928
490    0.225486    0.679117    -2.23122  0.000163513
500    0.223276    0.678202    -1.65856  0.000204882
510    0.221389     0.67742    -1.41693  0.000180683
520    0.219662    0.676704    -1.70339  0.000159081
530    0.218207    0.676102    -1.98943  0.000282981
540    0.214002     0.67436    -2.62843  0.000385091
550    0.210505    0.672911    -1.98988  0.000264867
560    0.208705    0.672165     -1.4396  0.000287592
570    0.204753    0.670528     -1.9462  0.000288102
580    0.202943    0.669778    -1.98983  0.000255724
590    0.199639    0.668409    -2.62874  0.000151176
600     0.19992    0.668525    -2.07807  4.38802e-05
610    0.198761    0.668045    -1.17511  0.000384414
620    0.192231     0.66534    -1.85795  0.000293454
630    0.192892    0.665614    -2.01289  4.2031e-05
640    0.191391    0.664991    -1.66028  0.00017805
650    0.189331    0.664138    -2.16725  0.000214586
660    0.187099    0.663213   -0.955679  0.000298533
670     0.18336    0.661665     -1.9248  0.000207105
680    0.182957    0.661497    -1.66081  0.000341664
690    0.176527    0.658834    -2.51971  0.000302942
700    0.176898    0.658987    -2.14589  7.75524e-05
710    0.174976    0.658191    -1.79378  0.00032668
720    0.170364     0.65628    -2.29959  0.00028798
730    0.169216    0.655805    -2.16781  0.000114951
740    0.168065    0.655328    -1.64011  0.000185344
750     0.16551    0.654269    -1.70582  0.000295259
760     0.16216    0.652881    -2.82903  0.000186259
770    0.161784    0.652726  -0.0979042  0.000265615
780    0.156848     0.65068     -1.6617  0.000432221
790     0.15314    0.649144    -1.66191  0.000162319
800    0.153602    0.649335    -1.22216  3.29673e-05
810    0.152481    0.648871    -1.17795  0.000134768
820    0.150906    0.648219   -0.715473  0.000239763
830    0.147685    0.646884    -0.84734  0.000203378
840    0.146839    0.646533   -0.935853  7.62068e-05
850    0.146161    0.646253    -1.70703  0.000224125
860    0.142356    0.644676     -2.5885  0.000190394
870    0.142353    0.644675    -2.67732  0.000131135
880    0.139733     0.64359    -2.96328  0.000196818
890    0.138417    0.643044    -1.79552  0.000283017
900    0.134073    0.641245    -1.48738  0.000329133
910    0.131834    0.640317    -2.30238  0.000118359
920    0.131706    0.640264    -1.81808  0.00013594
930    0.129116    0.639191    -2.69925  0.000287995
940    0.125946    0.637878    -2.96341  0.000150853
950    0.126099    0.637941    -1.99513  3.35641e-05
960    0.125275      0.6376    -3.09608  0.000188912
970     0.12232    0.636375    -2.06082  0.000226635
980    0.120742    0.635722    -1.75279  0.000155132
990    0.119218     0.63509      -2.348  1.12936e-05
1000    0.120516    0.635628    -2.28213  8.37237e-05
1010    0.117543    0.634396    -2.87699  0.000251279
1020    0.115491    0.633546    -2.92124  0.000112972
1030    0.115284     0.63346     -3.7804  0.000206112
1040    0.111368    0.631838    -4.02211  0.000296209
1050     0.10936    0.631006    -3.62593  0.000204097
1060    0.107286    0.630147    -4.37504  0.000140602
1070    0.106547    0.629841    -3.31794  0.000222434
1080    0.102838    0.628304    -3.36196  0.000286901
1090    0.100809    0.627464    -3.31753  0.000249733
1100   0.0978431    0.626235    -2.47971  0.000267702
1110   0.0954554    0.625245    -3.27299  4.02972e-05
1120   0.0970371    0.625901     -2.7671  3.7751e-05
1130   0.0947004    0.624933    -2.96638  0.000204623
1140   0.0929447    0.624205    -2.68014  0.00033127
1150    0.088075    0.622188    -2.87746  0.00037589
1160   0.0854269     0.62109    -3.34095  0.000182777
1170   0.0844195    0.620673     -2.2394  0.000236288
1180   0.0807011    0.619133    -2.41498  5.9849e-05
1190   0.0832225    0.620177    -1.86507   2.786e-05
1200   0.0801439    0.618902    -1.99706  6.89771e-05
1210    0.081843    0.619606    -1.31451  0.000193639
1220   0.0762711    0.617297    -1.66656  0.000178849
1230    0.078266    0.618124    -1.90922  -7.52788e-05
1240   0.0777767    0.617921    -2.10779  0.00022416
1250   0.0737828    0.616266    -2.54814  0.000239367
1260   0.0729894    0.615938    -2.24002  -1.279e-05
1270   0.0740386    0.616372    -3.07754  -9.66787e-06
1280   0.0731827    0.616018    -2.02033  4.08728e-05
1290   0.0732211    0.616034    -3.65077  0.000166289
1300   0.0698569     0.61464    -3.45161  8.88672e-05
1310   0.0714438    0.615297    -3.10014  3.25501e-05
1320   0.0692059     0.61437    -2.76923  0.000155118
1330   0.0683414    0.614012    -3.54013  0.000131574
1340   0.0665744     0.61328    -2.65878  0.000113835
1350   0.0660647    0.613069    -2.81389  0.000171253
1360   0.0631494    0.611861    -1.51383  0.000225656
1370   0.0615516    0.611199    -1.69013  -5.38278e-05
1380   0.0642259    0.612307    -2.46167  1.86669e-05
1390   0.0611783    0.611044    -1.02893  0.000217614
1400   0.0598737    0.610504    -1.22746  3.08523e-05
1410   0.0605612    0.610789    -1.80066  0.000127862
1420   0.0573164    0.609444    -1.07314  7.03514e-05
1430   0.0591542    0.610206    -1.00811  4.65482e-05
1440   0.0563855    0.609059   -0.963747  0.000401729
1450   0.0511196    0.606877   -0.984993  0.000150147
1460   0.0533825    0.607814   -0.875686  -8.04147e-05
1470   0.0527279    0.607543    -1.07417  4.72534e-05
1480   0.0524374    0.607423    -1.91156  0.00010534
1490   0.0506211     0.60667    -1.36059  0.000221556
1500   0.0480063    0.605587   -0.413703  0.000264846
1510   0.0453242    0.604476    -1.80092  4.81166e-05
1520    0.047044    0.605188    -1.58138  -5.57343e-05
1530   0.0464389    0.604938   -0.523914   0.0001281
1540    0.044482    0.604127    -1.16234  0.000131416
1550   0.0438106    0.603849    -1.22864  9.49021e-05
1560   0.0425839    0.603341    -1.49317  0.000218262
1570   0.0394453     0.60204     -2.2203  7.68037e-05
1580   0.0410479    0.602704    -1.58132  -1.22216e-05
1590   0.0396898    0.602141    -1.44913  2.15873e-05
1600   0.0406161    0.602525    -2.68321  0.000130056
1610   0.0370886    0.601064    -3.03511  0.000334593
1620   0.0339243    0.599753    -2.74867  0.000189639
1630   0.0332959    0.599492    -3.49755  -3.64991e-05
1640   0.0346543    0.600055    -2.94722  -6.13812e-05
1650   0.0345235    0.600001    -2.70543  8.78526e-05
1660   0.0328972    0.599327    -2.50707  0.000156593
1670   0.0313916    0.598704    -2.37503  0.00019443
1680   0.0290086    0.597716    -1.86821  8.2285e-05
1690   0.0297459    0.598022    -1.89025  0.000107692
1700   0.0268548    0.596824    -2.63971  0.000179849
1710   0.0261489    0.596532    -1.78086  0.000120813
1720   0.0244385    0.595823    -2.33138  0.000146119
1730   0.0232266    0.595321     -2.0453  0.000137063
1740   0.0216972    0.594687    -2.74929  -2.94065e-05
1750   0.0238147    0.595564     -2.1988  -0.0001332
1760   0.0243612    0.595791    -3.03649  2.05012e-06
1770   0.0237737    0.595547    -3.83012  0.000121935
1780   0.0219225    0.594781     -2.7725  4.31027e-05
1790   0.0229116     0.59519    -3.60933  -4.2031e-05
1800   0.0227632    0.595129    -2.28828  -4.17214e-06
1810   0.0229951    0.595225    -3.63221  3.38593e-05
1820    0.022086    0.594848    -2.17876  -9.95852e-05
1830   0.0249868     0.59605    -2.13506  5.31591e-05
1840   0.0210228    0.594408    -2.04614  0.000224894
1850   0.0204889    0.594187    -2.72904  2.4098e-06
1860   0.0209746    0.594388    -1.42975  0.00010462
1870   0.0183965     0.59332     -3.1476  0.00020704
1880   0.0168338    0.592672    -2.72908  0.000178849
1890   0.0148195    0.591838    -2.75138  0.000147133
1900   0.0138911    0.591453    -3.32416  -5.78275e-05
1910   0.0159761    0.592317     -3.1261  -7.06318e-05
1920   0.0153038    0.592038    -1.56222  0.000154219
1930   0.0128917    0.591039    -2.46587  0.000115907
1940   0.0129856    0.591078    -1.73944  6.14602e-05
1950   0.0116625     0.59053     -2.1136  0.000106728
1960   0.0108511    0.590194    -2.28983  0.000152305
1970  0.00861637    0.589268    -1.69491  -9.26508e-06
1980   0.0110364     0.59027    -2.02616  -3.16725e-05
1990  0.00924982     0.58953    -2.75252  3.61108e-05
2000   0.0103142    0.589971    -2.17949  -0.000155334
2010   0.0123565    0.590817    -1.78359  -9.05934e-05
2020    0.012126    0.590722    -1.43139  6.54022e-05
2030   0.0110485    0.590275    -1.78342  -2.98526e-06
2040   0.0121857    0.590747    -1.23344  3.96283e-05
2050   0.0102559    0.589947    -1.18905  0.000150723
2060  0.00917127    0.589498   -0.373835  5.61875e-05
2070  0.00913214    0.589481   -0.947018  4.98214e-05
2080  0.00817485    0.589085    -0.96891   0.0001057
2090  0.00701815    0.588606     -1.4098  0.000188128
2100  0.00441228    0.587526   -0.241194  0.000135905
2110  0.00430006    0.587479   -0.682577  1.44515e-05
2120  0.00412325    0.587406    -1.82787  -8.12276e-05
2130  0.00592461    0.588153   -0.440607  9.05215e-05
2140  0.00231282    0.586656     -1.0131  0.000311977
2150  -0.000314926    0.585567     -1.1448  3.79667e-05
2160  0.00155348    0.586342    -2.22448  -2.79463e-05
2170  0.000243999    0.585799   -0.417876  -5.48136e-05
2180  0.00264975    0.586796   -0.705651  -8.1501e-06
2190  0.000407001    0.585867    -1.27776  -3.1766e-05
2200  0.00328507    0.587059   -0.639804  -0.000198192
2210  0.00437084    0.587509    -1.36683  4.14483e-05
2220  0.00245611    0.586716   -0.463058  0.000148306
2230  0.00140472     0.58628   -0.352654  1.82784e-05
2240  0.00209054    0.586564    -1.45519  0.000122287
2250  -0.00104103    0.585267   -0.881882  0.000233094
2260  -0.00257135    0.584633   -0.837281  -0.000115554
2270  0.00127006    0.586224    -1.47672  -0.000256796
2280  0.00256458     0.58676    -1.30114  1.85661e-05
2290  0.000898741     0.58607    -1.74138  0.000170123
2300  -0.000837885    0.585351    -1.71946  0.000268479
2310  -0.00447083    0.583846    -1.54295  0.000171051
2320  -0.00425891    0.583933    -1.34498  1.60197e-05
2330  -0.00479122    0.583713    -1.58728  0.000144824
2340  -0.0071554    0.582733   -0.639912  -8.57235e-05
2350  -0.00307675    0.584423    -1.30144  -0.000156924
2360  -0.00401693    0.584034   -0.861389  -1.47392e-05
2370  -0.00278197    0.584545    -0.75051  -3.50533e-05
2380  -0.00331586    0.584324    -1.83013  4.65987e-05
2390  -0.00371394    0.584159    -1.36735  9.45426e-05
2400  -0.00520671    0.583541   -0.772166  -0.0001413
2410  -0.000887951     0.58533    -0.53082  -0.000134423
2420  -0.00251826    0.584655   -0.861023  1.91847e-05
2430  -0.00127165    0.585171     -1.5224  -7.67677e-05
2440  -0.000982904    0.585291    -1.72086  -2.54214e-05
2450  -0.000763218    0.585382    -1.72056  -5.30224e-05
2460  7.75446e-05     0.58573    -1.03738  -4.97422e-05
2470  0.000231627    0.585794    -0.72892  -0.000205292
2480  0.00418338    0.587431    -1.12628  -0.000101822
2490  0.00226807    0.586638     -0.7292  8.30116e-06
2500  0.00401736    0.587362    -1.83073  -5.38568e-05
2510  0.00334521    0.587084    -1.39017  -7.49982e-05
2520  0.00551732    0.587984    -1.36778  -0.000123654
2530  0.00581829    0.588108    -1.05955  0.000102153
2540  0.00347426    0.587137    -1.76437  2.55653e-05
2550  0.00530699    0.587897    -1.19181  -0.0002603
2560  0.00868025    0.589294    -1.76488  -0.000187503
2570  0.00905704     0.58945    -2.05141  1.47752e-05
2580  0.00838475    0.589172    -2.20588  5.32742e-05
2590  0.00799156    0.589009    -1.69927  0.000148212
2600   0.0054205    0.587944    -1.25787  3.60173e-05
2610  0.00727121     0.58871   -0.839131  -7.62139e-05
2620  0.00694478    0.588575    -1.74323  6.08632e-05
2630  0.00605395    0.588206     -1.5222  1.15885e-05
2640  0.00671301    0.588479    -1.72131  2.94065e-05
2650  0.00546582    0.587962    -1.41244  -4.84762e-05
2660  0.00768253    0.588881    -2.00816  -0.000275104
2670   0.0109679    0.590242    -1.65624  -3.8089e-05
2680  0.00844431    0.589196    -2.38265  0.000178086
2690  0.00740616    0.588766    -2.27261  0.000132416
2700  0.00579599    0.588099    -2.11794  -6.31651e-05
2710  0.00866946     0.58929    -2.27237  -0.000123647
2720  0.00826893    0.589124    -1.67781  3.29601e-05
2730  0.00801026    0.589017    -1.72166  0.000143911
2740  0.00539072    0.587931     -2.2942  5.81873e-05
2750  0.00684652    0.588534   -0.994201  -0.000163743
2760  0.00866558    0.589288    -1.58984  -3.8463e-05
2770  0.00761578    0.588853    -1.65564  -6.40932e-06
2780  0.00879376    0.589341    -1.65558  -9.91249e-06
2790  0.00781403    0.588935    -1.96384  -1.36387e-05
2800  0.00906654    0.589454    -1.74407  -0.000165174
2810   0.0111175    0.590304     -1.7663  -4.26352e-05
2820  0.00991924    0.589808    -1.80991  -0.000122662
2830   0.0135707     0.59132      -1.128  -0.00022785
2840   0.0144762    0.591695     -1.1937  -4.70951e-05
2850   0.0145126    0.591711   -0.511037  -0.000123669
2860   0.0169496     0.59272   -0.665892  -3.27946e-05
2870   0.0151685    0.591982    -1.43666  0.000112699
2880   0.0146956    0.591786    -1.21613  3.64201e-05
2890   0.0144401    0.591681      -1.569    0.000117
2900   0.0123556    0.590817   -0.643312  -5.86188e-05
2910   0.0156125    0.592166    -2.51647  -0.00017577
2920    0.015871    0.592273    -2.38411  -0.000158089
2930   0.0187743    0.593476    -2.14244  -4.06282e-05
2940   0.0166836     0.59261     -2.2302  0.000150378
2950   0.0157667     0.59223    -1.34935  -1.51205e-05
2960    0.016986    0.592735    -1.81196  -7.5819e-06
2970   0.0159184    0.592293     -1.4593  2.18535e-05
2980   0.0165489    0.592554    -1.15104  7.01571e-05
2990   0.0145152    0.591712     -1.9883  7.75734e-05
3000   0.0149975    0.591911    -1.56977  -1.85733e-05
3010   0.0148867    0.591866    -1.17355  -0.000160017
3020   0.0181978    0.593237    -1.46077  -2.24002e-05
3030   0.0153347    0.592051   -0.446588  0.000156104
3040   0.0150757    0.591944    -1.50382  3.34636e-05
3050   0.0146654    0.591774   -0.534693  -0.000127244
3060   0.0176206    0.592998   -0.468824  -8.62055e-05
3070   0.0163895    0.592488   -0.909992  1.45019e-05
3080   0.0173306    0.592878   -0.733352  -1.53003e-05
3090   0.0166955    0.592615    -0.40259  -0.000158499
3100   0.0205006    0.594191    -1.52713  -0.000241532
3110   0.0215262    0.594616    -1.28415  8.21629e-05
3120   0.0188573    0.593511    -1.10775  2.54215e-05
3130   0.0210178    0.594406   -0.976096  1.4509e-05
3140   0.0185671     0.59339    -1.12981  -3.12769e-05
3150   0.0216433    0.594665     -0.4476  -8.03716e-05
3160   0.0201746    0.594056   -0.292723  0.000158557
3170   0.0184722    0.593351    -1.59265  -0.000122669
3180   0.0226279    0.595073    -0.46975  -0.000103556
3190   0.0205433    0.594209    -1.13041  4.8469e-05
3200   0.0216585    0.594671   -0.623959  -0.000161455
3210   0.0237724    0.595547   -0.470201  -8.91548e-05
3220   0.0234416     0.59541    -1.24112  6.76394e-05
3230   0.0224196    0.594986   -0.492222  0.000217578
3240   0.0190901    0.593607   -0.447729  6.03453e-05
3250   0.0212127    0.594486   -0.249844  -0.000181769
3260   0.0227255    0.595113    0.102488  -1.25741e-05
3270   0.0214642    0.594591    0.411035  5.28929e-05
3280   0.0216676    0.594675    0.124336  3.37729e-05
3290   0.0207887    0.594311    -0.27223  -1.27466e-05
3300   0.0219225    0.594781   -0.206534  2.62342e-05
3310    0.020264    0.594093   -0.646582  4.16281e-05
3320     0.02109    0.594436   -0.161998  -4.78355e-06
3330   0.0203597    0.594133    0.124314  1.85373e-05
3340   0.0207192    0.594282  -0.0524966  0.000139652
3350   0.0175667    0.592976   -0.118064  7.72282e-05
3360   0.0191747    0.593642     0.82831  -5.53099e-05
3370   0.0186729    0.593434   -0.162428  -6.34672e-05
3380    0.020444    0.594168   -0.228705  -4.38509e-05
3390   0.0195499    0.593798   -0.295133  -7.56815e-05
3400   0.0219576    0.594795   -0.163202  2.28606e-05
3410   0.0190927    0.593608    0.762506  6.59273e-05
3420   0.0206391    0.594249    0.475505  -7.05011e-07
3430   0.0191068    0.593614     1.09286  0.000109908
3440    0.018441    0.593338    0.608404  -9.58517e-05
3450   0.0210238    0.594408    0.805643  -1.65088e-05
3460   0.0187711    0.593475    0.321468  9.0428e-05
3470   0.0192152    0.593659    0.828525  -1.65663e-05
3480   0.0191025    0.593612    0.718141  -8.04939e-05
3490   0.0208251    0.594326    0.717647  9.9096e-05
3500   0.0171205    0.592791    0.343661  0.000175022
3510   0.0173247    0.592876    0.960197  -3.24493e-05
3520   0.0177695     0.59306    0.783881  -4.31668e-07
3530   0.0173333    0.592879    0.211042  3.1622e-05
3540   0.0171371    0.592798    0.387358  -3.26867e-05
3550    0.017987     0.59315    0.255062  -6.89342e-05
3560   0.0185158    0.593369     0.89377  -0.000121705
3570   0.0204211    0.594158     1.00333  -1.28042e-05
3580   0.0187718    0.593475     1.77503  3.14711e-05
3590   0.0197917    0.593898    0.694916  -4.73326e-06
3600   0.0188665    0.593514     1.95111    0.000243
3610   0.0149317    0.591884     1.64301  -8.86936e-06
3620   0.0190439    0.593588    0.937337  -8.16089e-05
3630   0.0165639     0.59256     0.89364  6.05467e-05
3640    0.017833    0.593086    0.761301  -0.000217089
3650   0.0209057    0.594359     1.15714  -0.00012751
3660   0.0203832    0.594143     1.37792  -2.56443e-05
3670   0.0214186    0.594572     1.22328  0.000163369
3680   0.0171158    0.592789     0.89349  0.000159391
3690   0.0182308    0.593251  -0.00976743  -2.51337e-05
3700   0.0176185    0.592997    0.364498  0.000156233
3710   0.0151061    0.591956     1.35612  9.45786e-05
3720   0.0157269    0.592214   -0.054433  6.20573e-05
3730    0.013865    0.591442     1.11363  0.000277693
3740    0.010173    0.589913   -0.384227  0.000303302
3750  0.00779892    0.588929    0.188203  -0.000107519
3760   0.0123234    0.590804    0.232051  -0.000186452
3770    0.011528    0.590474   -0.495213  0.00027168
3780  0.00688982    0.588552    0.453076  -3.6974e-06
3790   0.0116019    0.590505   -0.319025  -0.000178878
3800   0.0104674    0.590035    0.209708  -7.96309e-06
3810   0.0117612    0.590571  -0.0989475  1.3279e-05
3820   0.0102018    0.589925     0.47415  -6.27119e-05
3830   0.0130154     0.59109    0.782439  -0.000277528
3840   0.0157524    0.592224    0.495374  -1.66671e-05
3850   0.0133488    0.591228     0.45172  -4.46709e-06
3860   0.0158417    0.592261   -0.231933  -5.06342e-05
3870   0.0143614    0.591648   -0.319692  0.000127042
3880   0.0133008    0.591209   -0.297586  -2.12349e-05
3890   0.0147861    0.591824    -0.69441  7.25668e-05
3900   0.0118495    0.590607    0.253146  0.000251481
3910  0.00975653     0.58974   0.0769599  0.000107174
3920  0.00970603    0.589719   -0.252834  -5.05407e-05
3930   0.0107673    0.590159     0.51761  0.000172159
3940  0.00626284    0.588293     0.23203  -5.52308e-05
3950    0.011872    0.590617   -0.452097  -0.000140508
3960  0.00907301    0.589457   0.0114997  0.000108088
3970   0.0097102    0.589721   0.0554547  -9.83551e-05
3980   0.0110401    0.590272    0.165537  -9.85781e-05
3990   0.0116818    0.590538     0.62808  7.84869e-05
4000  0.00947037    0.589622   0.0991953  0.000165182
4010  0.00837813    0.589169    0.892694  -0.000116403
4020   0.0117984    0.590586    -0.05581  -0.000168606
4030   0.0117502    0.590566    0.230588  -5.18427e-05
4040   0.0128353    0.591016   -0.298317  -0.000113022
4050   0.0140107    0.591503    0.428322  0.000179482
4060  0.00924565    0.589528  -0.0555733  0.00022775
4070   0.0094557    0.589615    0.252329  -0.000121949
4080   0.0116846    0.590539   -0.453021  7.11066e-05
4090  0.00803357    0.589026    0.120312  0.000312948
4100  0.00542568    0.587946    0.693195  3.19386e-05
4110  0.00739479    0.588762    0.891295  -1.61491e-05
4120  0.00574866     0.58808    0.318908  8.08464e-05
4130  0.00577787    0.588092     0.49503  -4.72605e-05
4140  0.00669387    0.588471  -0.0783042  -0.000122813
4150  0.00823412    0.589109   -0.166172  -9.65064e-05
4160    0.008624    0.589271    0.538663  0.000121316
4170  0.00580779    0.588104    0.076013   0.0001973
4180    0.004678    0.587636    0.891187  0.000189157
4190  0.00202465    0.586537     0.45086  0.000131524
4200  0.00204752    0.586546     1.13341  0.000123208
4210  -0.000439516    0.585516     1.19958  6.05251e-05
4220  0.000837022    0.586045    -0.14484  0.000160125
4230  -0.00364201    0.584189    0.252674  0.000263824
4240  -0.00443947    0.583859    0.185794  -0.000141386
4250  -0.000814291    0.585361   -0.409518  -0.000164088
4260  -0.0011577    0.585218   -0.607554  2.63278e-06
4270  -0.000866946    0.585339   -0.783913  0.00022511
4280  -0.0056599    0.583353   -0.166172  0.000275542
4290  -0.00637779    0.583056   -0.739205  0.000112864
4300  -0.00791718    0.582418   -0.805546  8.22204e-06
4310  -0.00654224    0.582987   -0.916015  -6.11413e-07
4320  -0.00790495    0.582423   -0.563405  1.28402e-05
4330  -0.00679904    0.582881   -0.938295  0.000118597
4340  -0.0102769     0.58144   -0.629467  0.000274866
4350  -0.0122964    0.580604   -0.585275  -0.000179784
4360  -0.00668121     0.58293     -0.3215  -1.36746e-05
4370  -0.0120229    0.580717    0.119796  0.000207054
4380  -0.0108223    0.581214   -0.784149  0.000106527
4390  -0.0141534    0.579834   -0.783849  -1.86597e-05
4400  -0.0104491    0.581369   -0.541986  0.000135171
4410  -0.0168568    0.578714      0.0098  0.000171958
4420  -0.0138883    0.579944   -0.586394  4.29085e-05
4430   -0.017715    0.578359    -1.53328  0.000219894
4440  -0.0182861    0.578122    -1.35675  -4.56779e-05
4450  -0.0168014    0.578737    -1.33521  -8.13566e-06
4460  -0.0181234    0.578189   -0.563814  2.91548e-05
4470  -0.0173845    0.578496   -0.850427  5.2936e-05
4480  -0.0191822    0.577751   -0.431926  3.40102e-05
4490  -0.0180647    0.578214   -0.916661  6.7438e-05
4500  -0.0205309    0.577192    -1.09272  8.15801e-05
4510  -0.0196963    0.577538   -0.961025  -6.46757e-05
4520  -0.0192374    0.577728    -1.02739  0.000158154
4530  -0.0228594    0.576227    -0.96109  0.000191646
4540  -0.0230703     0.57614    -1.29181  3.53915e-05
4550  -0.0235672    0.575934    -1.59997  0.000398261
4560  -0.0310356     0.57284    -1.73209  0.000375221
4570  -0.0310717    0.572825    -1.20351  -0.000125755
4580  -0.0285205    0.573882   -0.543191  -0.000226757
4590  -0.0265365    0.574704    -2.30588  0.000152219
4600  -0.0315648    0.572621    -1.55632  0.000330349
4610  -0.0331435    0.571967   -0.918124  0.000211234
4620  -0.0357895     0.57087     -1.2702  0.000284441
4630  -0.0388323     0.56961   -0.895845  5.78277e-05
4640  -0.0369461    0.570391    -1.40297  0.00012159
4650  -0.0412641    0.568602     -1.1382  8.25224e-05
4660  -0.0385965    0.569707    -1.05085  4.45414e-05
4670  -0.0421549    0.568233    -1.27076  7.34229e-05
4680   -0.040065    0.569099    -1.84383  -5.28928e-05
4690  -0.0410971    0.568671    -1.38097  0.000127869
4700  -0.0426224    0.568039     -2.3062  1.53866e-05
4710  -0.0414048    0.568544     -1.8665  0.000104246
4720  -0.0447073    0.567176    -2.06406  0.000143609
4730   -0.044277    0.567354    -2.74763  6.05898e-05
4740  -0.0459191    0.566674    -2.57099  9.52691e-05
4750  -0.0461824    0.566565    -2.46067  5.11521e-05
4760  -0.0469421     0.56625    -2.08655  -2.81332e-05
4770  -0.0456197    0.566798    -2.06458  -1.31136e-05
4780  -0.0466799    0.566358    -1.35955  1.65088e-05
4790  -0.0459499    0.566661    -1.97652  6.76177e-06
4800  -0.0468151    0.566302    -1.42583  0.000281793
4810  -0.0515857    0.564326    -1.51346  0.00017221
4820  -0.0502593    0.564875   -0.985434  -8.76945e-05
4830  -0.0498319    0.565053    -1.53612  0.000133329
4840  -0.0529259    0.563771    -1.20545  -0.000138775
4850  -0.0470564    0.566202    -2.10931  -0.00024456
4860  -0.0480347    0.565797    -1.95493  0.000158772
4870  -0.0502318    0.564887    -1.77854  3.24709e-05
4880  -0.0486841    0.565528    -2.17505  -0.000109303
4890  -0.0480457    0.565793    -1.86712  -2.83707e-05
4900  -0.0481167    0.565763    -2.37381  0.000124481
4910  -0.0505354    0.564761     -2.3956  0.000129891
4920  -0.0507145    0.564687     -1.8897  1.79332e-05
4930   -0.050894    0.564612    -2.46213  0.000254042
4940  -0.0557953    0.562582    -2.72638  0.000270025
4950  -0.0562945    0.562375    -2.57178  -0.000212737
4960  -0.0515406    0.564345    -2.10991  -0.000269896
4970  -0.0508966    0.564611    -2.24221  0.000101046
4980  -0.0535615    0.563507    -2.17638  0.000225563
4990  -0.0554079    0.562742       -2.11  0.00035008
