Time   Number   
ps   
0          52          53
10          54          55
20          49          59
30          47          52
40          48          46
50          50          46
60          48          40
70          48          51
80          48          48
90          45          49
100          44          43
110          46          48
120          43          48
130          44          52
140          47          48
150          47          39
160          46          49
170          47          39
180          46          39
190          47          44
200          46          43
210          48          43
220          47          48
230          45          35
240          49          39
250          48          47
260          44          46
270          39          46
280          44          35
290          42          46
300          46          41
310          47          44
320          51          41
330          50          45
340          46          43
350          48          42
360          50          43
370          49          41
380          47          37
390          47          38
400          49          36
410          41          44
420          45          42
430          46          38
440          45          54
450          44          35
460          47          48
470          46          44
480          45          39
490          44          44
500          44          42
510          42          48
520          44          49
530          40          41
540          43          45
550          46          36
560          46          34
570          43          40
580          44          42
590          51          42
600          48          46
610          43          47
620          47          38
630          48          49
640          44          50
650          48          41
660          50          38
670          50          39
680          48          37
690          53          42
700          49          43
710          46          43
720          47          44
730          47          44
740          48          36
750          49          45
760          49          38
770          46          42
780          46          51
790          48          51
800          50          34
810          49          38
820          52          37
830          46          36
840          48          45
850          52          45
860          50          42
870          54          44
880          51          38
890          50          45
900          51          41
910          49          41
920          46          45
930          49          42
940          52          40
950          50          40
960          48          36
970          46          33
980          49          38
990          43          44
1000          47          39
1010          49          37
1020          50          34
1030          47          39
1040          51          35
1050          45          38
1060          48          41
1070          48          43
1080          47          39
1090          49          36
1100          48          41
1110          48          41
1120          47          41
1130          47          41
1140          46          42
1150          48          40
1160          47          34
1170          45          36
1180          50          41
1190          48          39
1200          47          43
1210          47          37
1220          47          42
1230          47          40
1240          49          34
1250          48          42
1260          50          42
1270          45          35
1280          49          49
1290          47          42
1300          43          37
1310          46          38
1320          42          34
1330          44          32
1340          48          38
1350          49          36
1360          45          37
1370          44          43
1380          43          41
1390          47          34
1400          49          41
1410          49          39
1420          46          36
1430          52          40
1440          46          38
1450          43          45
1460          48          45
1470          46          41
1480          47          40
1490          44          40
1500          43          44
1510          48          39
1520          45          45
1530          47          37
1540          41          42
1550          47          36
1560          48          41
1570          47          41
1580          45          44
1590          48          44
1600          51          41
1610          51          40
1620          49          40
1630          47          42
1640          46          33
1650          51          38
1660          44          43
1670          48          33
1680          44          35
1690          48          29
1700          44          38
1710          45          33
1720          44          46
1730          44          45
1740          52          42
1750          45          41
1760          49          42
1770          47          40
1780          47          48
1790          45          48
1800          50          42
1810          51          51
1820          50          40
1830          50          51
1840          45          53
1850          52          40
1860          51          47
1870          52          47
1880          53          46
1890          48          51
1900          50          43
1910          45          49
1920          52          44
1930          51          53
1940          50          47
1950          52          40
1960          54          41
1970          51          50
1980          51          43
1990          48          46
2000          50          46
2010          52          46
2020          51          47
2030          48          47
2040          48          51
2050          47          51
2060          51          45
2070          48          49
2080          47          43
2090          48          45
2100          51          48
2110          54          46
2120          52          41
2130          51          47
2140          50          47
2150          51          44
2160          48          45
2170          48          49
2180          54          45
2190          51          41
2200          49          50
2210          50          42
2220          52          50
2230          49          51
2240          45          45
2250          49          49
2260          51          49
2270          46          47
2280          50          48
2290          51          46
2300          39          47
2310          49          49
2320          47          43
2330          43          45
2340          43          39
2350          44          51
2360          45          45
2370          46          38
2380          48          49
2390          47          49
2400          52          46
2410          44          60
2420          50          56
2430          50          49
2440          49          51
2450          46          47
2460          49          48
2470          48          51
2480          53          49
2490          53          55
2500          48          51
2510          52          52
2520          54          51
2530          47          53
2540          53          48
2550          51          46
2560          47          53
2570          49          48
2580          46          49
2590          45          57
2600          47          40
2610          47          52
2620          46          38
2630          46          57
2640          44          54
2650          48          49
2660          51          47
2670          46          53
2680          47          46
2690          47          41
2700          42          45
2710          46          46
2720          53          48
2730          46          48
2740          47          54
2750          46          50
2760          44          53
2770          50          48
2780          47          50
2790          47          48
2800          43          47
2810          48          43
2820          49          44
2830          49          45
2840          47          44
2850          48          48
2860          48          42
2870          53          45
2880          48          45
2890          42          51
2900          50          41
2910          47          41
2920          53          52
2930          51          50
2940          52          46
2950          52          43
2960          50          46
2970          52          47
2980          52          46
2990          52          51
3000          45          47
3010          44          49
3020          46          47
3030          46          47
3040          43          43
3050          44          46
3060          46          46
3070          47          44
3080          49          54
3090          46          50
3100          51          56
3110          48          47
3120          48          49
3130          48          44
3140          50          48
3150          47          42
3160          47          54
3170          51          53
3180          54          44
3190          50          56
3200          48          54
3210          47          55
3220          48          52
3230          50          42
3240          46          48
3250          48          51
3260          41          48
3270          47          52
3280          52          56
3290          46          46
3300          53          48
3310          46          52
3320          53          54
3330          49          44
3340          42          52
3350          45          53
3360          48          53
3370          47          49
3380          46          47
3390          47          58
3400          45          54
3410          50          58
3420          47          53
3430          46          42
3440          45          49
3450          45          54
3460          48          48
3470          40          56
3480          45          45
3490          52          42
3500          50          49
3510          54          43
3520          46          55
3530          43          37
3540          46          42
3550          40          47
3560          45          51
3570          44          47
3580          41          45
3590          46          43
3600          47          40
3610          45          46
3620          43          43
3630          45          45
3640          48          39
3650          51          40
3660          50          41
3670          49          45
3680          47          44
3690          51          50
3700          43          43
3710          47          40
3720          40          48
3730          44          44
3740          49          41
3750          46          42
3760          50          36
3770          46          36
3780          46          50
3790          43          47
3800          45          43
3810          45          52
3820          44          51
3830          45          48
3840          49          48
3850          45          34
3860          42          43
3870          44          40
3880          46          36
3890          50          44
3900          44          47
3910          48          44
3920          51          43
3930          50          46
3940          45          39
3950          44          37
3960          38          41
3970          45          44
3980          50          44
3990          51          39
4000          48          47
4010          50          47
4020          51          41
4030          45          44
4040          49          41
4050          45          41
4060          46          47
4070          50          40
4080          44          42
4090          52          38
4100          47          46
4110          47          44
4120          51          41
4130          50          38
4140          46          46
4150          43          48
4160          47          41
4170          49          39
4180          46          42
4190          52          40
4200          47          37
4210          45          39
4220          49          41
4230          48          37
4240          50          40
4250          50          41
4260          47          38
4270          44          47
4280          48          42
4290          56          40
4300          49          39
4310          46          44
4320          53          43
4330          46          35
4340          49          42
4350          47          49
4360          49          40
4370          51          44
4380          48          53
4390          47          50
4400          45          40
4410          42          47
4420          46          45
4430          45          39
4440          41          46
4450          44          49
4460          41          44
4470          44          54
4480          47          49
4490          45          41
4500          45          41
4510          43          45
4520          42          39
4530          42          38
4540          43          39
4550          44          35
4560          42          42
4570          35          37
4580          44          33
4590          42          48
4600          42          43
4610          41          42
4620          42          43
4630          43          40
4640          46          40
4650          42          42
4660          43          39
4670          43          38
4680          39          41
4690          41          41
4700          41          39
4710          46          39
4720          45          45
4730          48          47
4740          46          39
4750          43          38
4760          43          47
4770          42          37
4780          46          36
4790          46          46
4800          42          40
4810          46          40
4820          43          43
4830          47          52
4840          50          39
4850          46          41
4860          47          45
4870          44          42
4880          46          44
4890          44          42
4900          48          36
4910          45          42
4920          49          34
4930          47          42
4940          46          47
4950          45          43
4960          45          39
4970          45          45
4980          44          38
4990          46          32
5000          39          38
5010          48          50
5020          44          35
5030          44          45
5040          51          38
5050          51          36
5060          46          39
5070          45          37
5080          49          37
5090          45          44
5100          45          45
5110          50          44
5120          46          37
5130          44          40
5140          46          44
5150          47          42
5160          45          43
5170          46          42
5180          49          34
5190          48          48
5200          46          38
5210          47          42
5220          47          45
5230          50          48
5240          48          43
5250          43          45
5260          47          42
5270          44          41
5280          45          36
5290          47          40
5300          46          34
5310          47          32
5320          44          55
5330          45          34
5340          45          34
5350          48          38
5360          42          39
5370          44          33
5380          49          39
5390          49          41
5400          46          43
5410          43          44
5420          46          36
5430          45          41
5440          52          35
5450          51          44
5460          50          43
5470          45          38
5480          49          34
5490          43          41
5500          47          47
5510          47          36
5520          49          34
5530          46          35
5540          46          41
5550          46          41
5560          47          43
5570          48          38
5580          52          49
5590          53          43
5600          48          41
5610          42          53
5620          46          42
5630          51          39
5640          51          38
5650          48          52
5660          47          40
5670          49          42
5680          50          43
5690          47          38
5700          46          44
5710          43          38
5720          49          44
5730          44          42
5740          47          37
5750          44          38
5760          42          44
5770          46          44
5780          50          35
5790          49          34
5800          49          39
5810          43          49
5820          48          46
5830          49          34
5840          48          39
5850          46          33
5860          44          34
5870          46          35
5880          42          47
5890          44          35
5900          49          37
5910          49          38
5920          45          40
5930          44          44
5940          40          42
5950          50          40
5960          41          51
5970          51          43
5980          43          43
5990          47          45
6000          48          39
6010          44          47
6020          48          38
6030          50          44
6040          45          37
6050          51          36
6060          54          37
6070          48          41
6080          48          33
6090          49          36
6100          51          38
6110          43          46
6120          47          36
6130          46          46
6140          47          46
6150          48          37
6160          49          42
6170          45          52
6180          46          35
6190          45          42
6200          53          38
6210          47          41
6220          46          45
6230          52          42
6240          45          40
6250          46          44
6260          47          42
6270          45          39
6280          46          45
6290          51          38
6300          54          35
6310          47          35
6320          48          39
6330          48          43
6340          49          45
6350          53          47
6360          46          44
6370          49          49
6380          49          37
6390          50          38
6400          48          41
6410          50          45
6420          53          40
6430          50          42
6440          48          36
6450          48          43
6460          50          44
6470          48          44
6480          44          43
6490          50          40
6500          44          44
6510          46          40
6520          45          45
6530          49          32
6540          51          36
6550          48          38
6560          45          38
6570          44          44
6580          48          39
6590          46          37
6600          46          32
6610          42          37
6620          42          38
6630          48          42
6640          47          38
6650          45          44
6660          45          39
6670          45          35
6680          47          36
6690          50          36
6700          47          40
6710          43          34
6720          48          32
6730          49          39
6740          41          40
6750          45          40
6760          47          37
6770          46          39
6780          47          43
6790          50          38
6800          46          39
6810          46          39
6820          44          49
6830          45          39
6840          46          40
6850          44          44
6860          47          44
6870          50          40
6880          46          47
6890          48          40
6900          48          43
6910          47          38
6920          42          43
6930          47          41
6940          44          45
6950          46          43
6960          46          41
6970          44          39
6980          49          48
6990          46          36
7000          48          37
7010          42          41
7020          39          36
7030          44          44
7040          47          38
7050          45          40
7060          43          43
7070          44          41
7080          42          41
7090          44          40
7100          43          40
7110          44          37
7120          44          38
7130          43          46
7140          46          40
7150          39          38
7160          45          40
7170          44          38
7180          42          51
7190          43          40
7200          47          36
7210          43          40
7220          41          39
7230          47          31
7240          44          45
7250          42          42
7260          43          41
7270          46          42
7280          44          37
7290          42          37
7300          45          38
7310          43          35
7320          44          32
7330          52          47
7340          41          41
7350          43          47
7360          48          50
7370          47          48
7380          48          40
7390          44          40
7400          46          40
7410          49          42
7420          47          40
7430          45          35
7440          47          36
7450          49          46
7460          46          43
7470          45          52
7480          45          44
7490          52          49
7500          50          40
7510          45          47
7520          47          50
7530          49          56
7540          50          49
7550          45          45
7560          41          50
7570          44          50
7580          50          58
7590          48          48
7600          41          59
7610          40          49
7620          44          52
7630          46          40
7640          42          53
7650          45          45
7660          46          45
7670          46          50
7680          43          37
7690          44          38
7700          41          38
7710          42          34
7720          45          44
7730          41          35
7740          40          48
7750          47          44
7760          42          46
7770          46          43
7780          45          48
7790          45          48
7800          48          47
7810          42          49
7820          50          46
7830          48          39
7840          45          44
7850          47          45
7860          51          42
7870          53          43
7880          52          47
7890          51          53
7900          49          52
7910          51          47
7920          52          43
7930          54          45
7940          47          51
7950          50          53
7960          47          46
7970          50          43
7980          46          44
7990          45          41
8000          48          40
8010          49          34
8020          46          37
8030          47          39
8040          48          40
8050          42          39
8060          41          43
8070          43          40
8080          45          34
8090          44          35
8100          46          41
8110          46          47
8120          47          43
8130          47          35
8140          47          40
8150          46          39
8160          45          43
8170          43          40
8180          51          43
8190          48          41
8200          49          38
8210          46          40
8220          45          43
8230          48          43
8240          48          46
8250          46          44
8260          42          41
8270          44          45
8280          39          55
8290          44          39
8300          44          37
8310          46          37
8320          42          38
8330          39          36
8340          44          36
8350          47          44
8360          46          45
8370          45          44
8380          46          40
8390          45          36
8400          47          40
8410          41          44
8420          40          37
8430          40          37
8440          38          35
8450          40          37
8460          38          40
8470          43          35
8480          41          37
8490          42          39
8500          42          35
8510          42          45
8520          42          45
8530          46          37
8540          43          39
8550          45          45
8560          46          42
8570          45          43
8580          39          44
8590          49          50
8600          43          39
8610          44          50
8620          47          41
8630          47          39
8640          45          42
8650          44          34
8660          44          34
8670          46          34
8680          39          39
8690          41          42
8700          43          38
8710          43          39
8720          45          39
8730          46          33
8740          44          40
8750          40          44
8760          46          36
8770          44          36
8780          44          30
8790          43          41
8800          43          33
8810          44          33
8820          44          43
8830          47          39
8840          49          39
8850          52          42
8860          45          44
8870          44          36
8880          50          33
8890          41          39
8900          41          40
8910          46          38
8920          48          50
8930          41          36
8940          45          43
8950          44          37
8960          47          40
8970          41          40
8980          41          44
8990          46          43
9000          39          37
9010          41          38
9020          44          38
9030          41          45
9040          44          38
9050          47          45
9060          40          46
9070          47          47
9080          45          39
9090          46          45
9100          44          42
9110          46          40
9120          39          39
9130          47          47
9140          44          42
9150          45          43
9160          44          41
9170          42          34
9180          44          37
9190          44          39
9200          43          37
9210          44          36
9220          40          33
9230          44          38
9240          45          35
9250          42          35
9260          41          42
9270          43          38
9280          43          35
9290          43          39
9300          39          46
9310          42          40
9320          39          42
9330          38          32
9340          40          35
9350          40          42
9360          44          45
9370          46          38
9380          45          40
9390          41          46
9400          41          44
9410          46          40
9420          46          39
9430          49          43
9440          44          40
9450          45          45
9460          46          47
9470          48          46
9480          45          43
9490          39          49
9500          45          40
9510          44          33
9520          42          44
9530          38          38
9540          42          46
9550          43          38
9560          50          35
9570          44          42
9580          40          46
9590          47          40
9600          43          39
9610          45          45
9620          48          34
9630          50          39
9640          43          46
9650          46          42
9660          45          39
9670          45          37
9680          46          36
9690          47          46
9700          54          44
9710          52          39
9720          52          41
9730          48          42
9740          45          38
9750          46          44
9760          43          39
9770          46          48
9780          52          41
9790          48          45
9800          52          35
9810          48          36
9820          52          33
9830          50          43
9840          51          37
9850          53          42
9860          55          35
9870          47          37
9880          49          39
9890          51          38
9900          53          40
9910          49          36
9920          47          46
9930          45          39
9940          48          40
9950          46          40
9960          48          36
9970          46          36
9980          43          39
9990          48          36
10000          47          43
