Time   C(t)   
ps   
0           1           1  2.75266e-10   0.0222408
10    0.778854    0.805174     1.43335   0.0124126
20    0.751748    0.781294   -0.476362  0.00258443
30    0.727166    0.759637    0.068318  0.00211923
40    0.709363    0.743953  -0.0682509  0.00176681
50    0.691829    0.728506     2.24784  0.00140541
60    0.681255     0.71919    -2.25483  0.00138575
70    0.664114    0.704089     2.79092  0.00158629
80    0.649529     0.69124     1.29145  0.00135321
90     0.63705    0.680246     1.42589  0.00144004
100    0.620729    0.665867     1.15368  0.00148858
110    0.607278    0.654018    0.743308  0.00123931
120    0.595942    0.644031     1.69743  0.00107345
130    0.585809    0.635104     2.51325    0.001022
140    0.575502    0.626024     1.55926  0.00104712
150    0.564867    0.616654    0.604475  0.000926334
160    0.556976    0.609702     1.28413  0.000743815
170    0.549991    0.603548     2.10274  0.00087623
180    0.539451    0.594263     3.73745  0.000985691
190    0.530277    0.586181    0.325343  0.00082581
200    0.522935    0.579713     1.00792  0.000889352
210     0.51249    0.570511     4.14409  0.000960583
220    0.503723    0.562787    -1.31149  0.000722808
230    0.498034    0.557775     1.14369  0.000701213
240    0.489699    0.550432     1.68837  0.000834303
250    0.481348    0.543075     3.05074  0.000758398
260    0.474531    0.537069    0.732521  0.000589149
270    0.469565    0.532694     3.45925  0.000427169
280    0.465988    0.529543     3.18598  0.000630502
290    0.456955    0.521585     2.91257  0.000732818
300    0.451331    0.516631      4.1397  0.000422508
310    0.448504     0.51414     2.77414  0.000548442
320    0.440362    0.506967     3.32068  0.000619651
330    0.436111    0.503222     3.45525  0.000527245
340    0.429818    0.497678     2.22986  0.000504734
350    0.426017    0.494329     1.95672  0.000349109
360    0.422835    0.491526     1.68305  0.000467591
370    0.416665     0.48609     4.68291  0.000444834
380    0.413939    0.483689     3.45459  0.000375155
390    0.409162     0.47948      2.3639  0.000312856
400    0.407682    0.478176     4.13704  0.000250624
410    0.404149    0.475064     2.63624  0.000471942
420    0.398243    0.469861     3.18318  0.00037013
430    0.396747    0.468543      1.1357  0.000292079
440    0.392401    0.464714     1.54461  0.000347939
450    0.389788    0.462412      2.2264  0.000396295
460    0.384475    0.457732     2.36203  0.000365271
470    0.382483    0.455976     2.36256  0.000350328
480    0.377469    0.451559     5.08903  0.000366803
490    0.375146    0.449513     4.95166  0.000391586
500    0.369637    0.444659     2.90685  0.000432058
510    0.366505      0.4419     3.58916  0.000265671
520    0.364324    0.439978     3.58743  0.000569579
530    0.355114    0.431865     4.81735  0.000458546
540    0.355153    0.431899     5.49674  0.000204057
550    0.351033    0.428269     2.63277  0.000348397
560    0.348185     0.42576     3.17772  0.000228976
570    0.346453    0.424235     3.17772  0.000253586
580    0.343113    0.421292     4.81282  0.00070384
590    0.332376    0.411833     3.99794  0.000616504
600    0.330783    0.410429     2.49594  0.000312434
610    0.326128    0.406328     1.81509  0.000304876
620    0.324685    0.405058     2.90418   0.0003299
630     0.31953    0.400515     1.81362  0.000330406
640    0.318077    0.399236     1.40298  0.000234301
650    0.314844    0.396387      3.5857  0.000291356
660     0.31225    0.394102     4.54008  0.000316322
670    0.308517    0.390814     2.76721  0.000341269
680    0.305425    0.388089    0.857371  0.000293328
690    0.302651    0.385645     3.17546  0.000334607
700    0.298733    0.382194     1.81176  0.000343391
710    0.295783    0.379595     1.81203  0.000319757
720    0.292337     0.37656     1.94873  0.000279664
730     0.29019    0.374667    0.446997  0.000108922
740    0.290159     0.37464     0.99061  0.000207327
750    0.286043    0.371014    0.446331  0.000412048
760    0.281918     0.36738     1.26375  0.000281927
770    0.280404    0.366047    0.991809  0.000225298
780    0.277412    0.363411     -1.0546  0.000250316
790    0.275398    0.361636    -2.96458  0.000308424
800    0.271244    0.357976     -1.0554  0.000415899
810     0.26708    0.354308   -0.781196  0.000350937
820    0.264225    0.351793   -0.235318  0.000203407
830    0.263012    0.350724   -0.646491  0.000228706
840    0.259651    0.347763    0.034891  0.000319949
850    0.256613    0.345087   -0.510987  0.000395083
860    0.251749    0.340802     1.12412  0.000445528
870    0.247702    0.337237   -0.649288  0.000322229
880    0.245305    0.335124   -0.921761  0.000314739
890    0.241408    0.331691    -0.78519  0.000381792
900    0.237669    0.328397    -0.78599  0.000432523
910    0.232757     0.32407    -1.73958  0.000425094
920    0.229167    0.320907    -1.60288  0.000334434
930    0.226069    0.318178    -3.23998  0.00035189
940    0.222129    0.314707    -2.28479  0.000294156
950    0.220185    0.312995    -1.05913  0.000286555
960    0.216398    0.309658    -2.96804  0.000287092
970    0.214444    0.307936    -3.24105  0.000245934
980    0.211479    0.305325    -2.42416  0.000439359
990    0.205656    0.300195    -2.01418  0.000482166
1000    0.201836    0.296829    -2.96804  0.000298392
1010    0.199689    0.294937    -1.74251  0.000374895
1020    0.194338    0.290223    -2.15168  0.000333428
1030     0.19302    0.289062    -4.46937  0.000325967
1040    0.187819     0.28448    -3.10581  0.000436255
1050    0.184295    0.281376    -1.33293  0.000276689
1060    0.182285    0.279605    -2.01498  0.000260472
1070    0.179085    0.276786    -1.60634  0.000227091
1080    0.177743    0.275604   -0.651684  0.000193776
1090     0.17521    0.273372    -3.78932  0.000253589
1100    0.172671    0.271135    0.165202  0.000228656
1110    0.170637    0.269343    0.166134  0.000254735
1120    0.167577    0.266647   -0.652883  0.000229683
1130    0.166043    0.265296    0.165602  0.000153513
1140    0.164506    0.263942    -1.33453  0.000136782
1150    0.163308    0.262886    -3.24637  0.000291011
1160    0.158686    0.258815    -1.74531  0.000325711
1170    0.156793    0.257147    -1.06392  7.8091e-05
1180    0.157124    0.257439   -0.109002  0.000155608
1190    0.153681    0.254405   -0.653548  0.000370472
1200    0.149715    0.250911    -1.19983  0.000216513
1210    0.149351     0.25059    -1.74544  0.000182776
1220    0.146059    0.247691    -0.24464  0.000355385
1230    0.142243    0.244329   -0.517246  0.000226747
1240    0.141524    0.243695   0.0279674  8.92349e-05
1250    0.140458    0.242756    -2.01818  0.000227786
1260    0.136969    0.239682    -2.97163  0.000219515
1270    0.136068    0.238889    -3.51685  0.000185493
1280    0.133259    0.236414    -1.47217  0.000159778
1290    0.132873    0.236073     -1.4727  3.86566e-05
1300    0.132486    0.235732    -1.60913  0.000247486
1310    0.127923    0.231713    -3.38108  0.000326186
1320    0.125962    0.229985    -3.24397  0.000126582
1330    0.125391    0.229482    -2.01658  -3.88764e-05
1340    0.126739     0.23067    -3.38201  -2.13809e-05
1350    0.125819    0.229859    -1.06339  0.000144659
1360    0.123846    0.228121   -0.381875  0.000206235
1370    0.121694    0.226225    -2.01751  8.39435e-05
1380    0.122167    0.226642   -0.109668  -1.2267e-05
1390    0.121939    0.226441    -1.60967  8.43402e-05
1400    0.120481    0.225156    -1.33666  0.000146056
1410    0.119018    0.223868    -1.88174  0.000119967
1420    0.118081    0.223042    -2.83666  0.000190835
1430    0.115202    0.220505    -1.88148  0.000235314
1440    0.113375    0.218896    -2.83666  -0.000108837
1450    0.117378    0.222423    -1.88387  6.82592e-05
1460     0.11201    0.217693    -2.56419  0.000200782
1470    0.113363    0.218885    -3.38361  0.000112937
1480    0.109751    0.215704    -3.79172  0.000183962
1490    0.109684    0.215644    -3.38467  0.000122356
1500    0.107304    0.213548    -4.88387  0.000193733
1510    0.105809    0.212231    -5.01978  -1.84178e-06
1520    0.107341     0.21358    -5.02031  -4.62882e-05
1530    0.106735    0.213046    -5.56672  2.49468e-05
1540    0.106842    0.213141    -5.15621  -3.75647e-05
1550    0.107486    0.213708    -5.43028  7.87988e-05
1560    0.105266    0.211752    -8.43095  0.000347792
1570     0.10053     0.20758    -5.15648  0.000240748
1580    0.100451     0.20751    -4.47456  7.08397e-05
1590   0.0991133    0.206332    -6.11073  2.59444e-05
1600    0.099932    0.207053    -5.42935  -0.000108994
1610    0.101293    0.208252     -4.6118  -0.000154316
1620    0.103018    0.209772    -5.56765  4.40031e-05
1630    0.100413    0.207477    -3.65728  0.000134252
1640    0.100333    0.207407    -4.33959  0.00016188
1650   0.0971755    0.204625    -4.47669  0.000225529
1660   0.0958227    0.203433    -3.38467  0.000180808
1670   0.0935594    0.201439    -4.47576  7.21745e-05
1680   0.0943792    0.202161    -4.06725  1.79604e-05
1690   0.0932002    0.201122    -5.56752  6.34104e-05
1700    0.093111    0.201044     -4.8856  5.45189e-05
1710   0.0921098    0.200162    -3.79425  5.45975e-05
1720   0.0920191    0.200082   -0.795313  3.65008e-05
1730   0.0913798    0.199519    -2.02231  -5.49499e-05
1740   0.0931181     0.20105    -1.34186  7.33264e-05
1750   0.0899132    0.198227    -2.02297  0.000137411
1760   0.0903698    0.198629   -0.386935  -8.9746e-06
1770   0.0900927    0.198385    0.430218  9.35197e-06
1780   0.0901828    0.198464    0.430484  7.38423e-05
1790   0.0886159    0.197084    0.430484  7.39209e-05
1800   0.0887044    0.197162    0.839126  9.59597e-06
1810    0.088424    0.196915    0.839126  8.35191e-05
1820    0.087034     0.19569     1.79325  -1.81057e-05
1830   0.0887861    0.197234     3.42968  -8.27994e-05
1840     0.08869    0.197149     1.51998  3.49432e-07
1850   0.0887791    0.197228    0.291518  2.82221e-05
1860   0.0881255    0.196652     1.24604  6.54325e-05
1870   0.0874704    0.196075     2.33766  4.69744e-05
1880    0.087186    0.195824     1.92849  5.64341e-05
1890   0.0863418     0.19508    0.429685  6.58698e-05
1900   0.0858686    0.194664     2.06559  -6.47426e-05
1910   0.0876366    0.196221     1.51944  -6.47645e-05
1920   0.0871639    0.195805     1.38341  1.92281e-05
1930   0.0872521    0.195882     1.24604  2.86914e-05
1940   0.0865901    0.195299     1.92809  9.4438e-05
1950   0.0853633    0.194218     1.65561  1.94293e-05
1960   0.0862015    0.194957     3.01931  -0.000102754
1970   0.0874184    0.196029     1.65561  1.01037e-05
1980   0.0859995    0.194779      2.7467  -6.55208e-05
1990   0.0887288    0.197183      3.9737  -0.000216594
2000   0.0903313    0.198595     2.06426  -5.63908e-05
2010   0.0898566    0.198177     2.20109  -7.56022e-05
2020   0.0918434    0.199927     3.01865  -0.000179961
2030   0.0934558    0.201348     1.24524  4.74513e-05
2040   0.0908943    0.199091     3.56346  9.48466e-05
2050   0.0915589    0.199677     3.15455  -9.42461e-06
2060   0.0910828    0.199257     2.74617  1.00583e-08
2070   0.0915587    0.199676     2.33686  0.000124136
2080   0.0886001     0.19707     3.83766  0.000133788
2090   0.0888829    0.197319     1.51865  3.86685e-07
2100   0.0885924    0.197063     1.92769  7.69883e-05
2110   0.0873431    0.195963      2.6096  3.92273e-07
2120   0.0885845    0.197056     1.65441  6.77735e-05
2130   0.0859877    0.194768    0.426888  0.000106164
2140   0.0864613    0.195186     1.51811  2.96075e-05
2150   0.0853955    0.194247     1.10974  0.000106705
2160   0.0843272    0.193305     2.06332  4.90621e-05
2170   0.0844143    0.193382    0.701094  3.96002e-05
2180   0.0835352    0.192608     1.65535  -2.81062e-05
2190   0.0849764    0.193877      -2.163  -7.64783e-05
2200   0.0850647    0.193955    -1.34492  2.02622e-05
2210   0.0845712     0.19352   -0.662604  5.91364e-05
2220    0.083882    0.192913   0.0193118  2.03684e-05
2230   0.0841638    0.193162    -1.07284  -8.73618e-06
2240   0.0840567    0.193067    0.564656  -0.00013557
2250   0.0868752     0.19555    -1.75556  -9.66724e-05
2260   0.0859902    0.194771     1.10854  2.99543e-05
2270   0.0862761    0.195022     0.69976  7.34255e-07
2280   0.0859755    0.194758     1.10814  0.000137938
2290   0.0835174    0.192592   -0.255159  4.00029e-05
2300   0.0851754    0.194053   -0.118991  1.08883e-05
2310   0.0832996      0.1924   0.0177139  -9.00254e-06
2320   0.0853555    0.194211    0.561859  3.06502e-05
2330   0.0826866     0.19186    -1.61846  8.96283e-05
2340   0.0835629    0.192632     -1.8916  9.00961e-05
2350   0.0808847    0.190273    -1.07364  3.07389e-05
2360   0.0829481    0.192091    -1.07444  -9.76525e-05
2370   0.0828377    0.191993   0.0161143  4.08191e-05
2380   0.0821318    0.191371   -0.528565  -8.77082e-06
2390   0.0830131    0.192148    0.288988  3.10875e-05
2400     0.08151    0.190824    0.153483  -3.8692e-05
2410    0.083787     0.19283   -0.528964  -4.85193e-05
2420   0.0824804    0.191679   -0.120188  1.10187e-05
2430   0.0835666    0.192635    0.289253  -8.782e-06
2440    0.082656    0.191833    -1.34785  6.11398e-05
2450   0.0823438    0.191558    -1.89306  5.13136e-05
2460   0.0816298    0.190929    -2.02936  0.000101612
2470   0.0803116    0.189768    0.288055  1.13841e-05
2480   0.0814021    0.190729   -0.803701  -2.86847e-05
2490   0.0808853    0.190273    -1.62165  4.16774e-05
2500   0.0805685    0.189994    -1.75702  4.18015e-05
2510   0.0800492    0.189537    -1.89399  1.15871e-05
2520   0.0803368     0.18979    -1.34851  1.5527e-06
2530   0.0800182    0.189509    -1.75782  4.2041e-05
2540    0.079496    0.189049    -1.48522  1.17082e-05
2550    0.079784    0.189303    -2.84891  -8.52495e-06
2560   0.0796665    0.189199    -2.84812  2.19401e-05
2570   0.0793452    0.188916    -2.30317  -1.87553e-05
2580   0.0800416     0.18953     -2.1666  8.32617e-05
2590     0.07768    0.187449    -2.71141  7.30645e-05
2600   0.0785803    0.188243    -2.02976  -6.97006e-05
2610    0.079074    0.188678    -2.71248  2.22556e-05
2620   0.0781352     0.18785    -1.89426  0.000104259
2630   0.0769888     0.18684    -1.62085  0.000125068
2640   0.0756338    0.185647    -2.43947  0.000156248
2650   0.0738638    0.184087    -3.25676  -5.9602e-05
2660   0.0768258    0.186697    -2.71235  -0.000110996
2670   0.0760838    0.186043    -5.16673  2.26758e-05
2680   0.0763723    0.186297    -5.03043  -2.8893e-05
2690   0.0766616    0.186552    -2.98548  -4.96741e-05
2700   0.0773658    0.187173    -4.34891  0.000147209
2710   0.0737174    0.183958    -2.02936  0.000147311
2720   0.0744196    0.184577    -4.34812  -5.99101e-05
2730   0.0749156    0.185014    -3.93947  6.48431e-05
2740   0.0731227    0.183435    -3.12085  -2.89697e-05
2750    0.075495    0.185525    -3.12125  -0.000133159
2760   0.0757859    0.185781    -2.84918  -5.0034e-05
2770   0.0764957    0.186406    -3.80423  6.50112e-05
2780   0.0744857    0.184635    -2.71221  -7.12778e-05
2790   0.0779213    0.187662    -4.62219  -0.000218064
2800    0.078847    0.188478    -2.98668  -2.96254e-05
2810   0.0785138    0.188184    -2.98628  0.000128103
2820   0.0762849     0.18622    -2.71274  0.000159954
2830   0.0753147    0.185366     -2.3037  8.65962e-05
2840    0.074553    0.184695    -1.62139  9.7423e-05
2850   0.0733662    0.183649    -3.12086  0.000150598
2860    0.071541    0.182041    -3.66607  5.55702e-05
2870   0.0722548     0.18267    -4.34945  -2.90241e-05
2880   0.0721215    0.182552    -2.84905  0.00010903
2890   0.0700742    0.180749    -1.48455  0.000130496
2900   0.0695116    0.180253    -2.98548  0.000237574
2910   0.0653227    0.176563    -3.93867  3.51552e-05
2920   0.0688085    0.179634    -4.07631  8.92468e-05
2930   0.0635378     0.17499    -2.43907  0.000185233
2940   0.0651038     0.17637    -4.89453  5.75913e-05
2950    0.062386    0.173976    -2.98455  0.000143338
2960   0.0622371    0.173844    -2.84838  2.56663e-05
2970   0.0618727    0.173523    -3.93947  -4.96399e-05
2980   0.0632299    0.174719    -3.25756  -0.000168262
2990   0.0652379    0.176488    -3.39439  -0.000179499
3000   0.0668199    0.177882    -4.34971  3.77707e-06
3010   0.0651624    0.176422    -3.66767  0.000252613
3020   0.0617676    0.173431    -2.16713  0.000177305
3030   0.0616163    0.173298     -3.9404  0.000112888
3040   0.0595098    0.171442    -1.75782  0.000254449
3050   0.0565273    0.168814    -2.84851  0.000124433
3060   0.0570212    0.169249    -3.12112  0.000103228
3070   0.0544627    0.166995   -0.667132  0.000168835
3080   0.0536445    0.166274    -1.07644  5.38044e-06
3090   0.0543551    0.166901    -2.03216  -5.44209e-06
3100   0.0537533     0.16637    -2.44027  7.12343e-05
3110   0.0529304    0.165645    -2.57804  0.000192265
3120    0.049908    0.162983    -1.48615  0.000236672
3130    0.048197    0.161475    -1.62259   0.0001383
3140    0.047142    0.160546    0.150686  -8.19247e-05
3150   0.0498355    0.162919      -2.169  3.9657e-05
3160   0.0463489    0.159847    -1.75862  8.35866e-05
3170   0.0481638    0.161446    -2.85118  5.09743e-05
3180   0.0453294    0.158949    -2.30503  0.00013957
3190   0.0453724    0.158987      -2.169  0.000129077
3200   0.0427479    0.156675    -3.39639  0.000307363
3210   0.0392251    0.153571    -3.39626  0.000219022
3220   0.0383674    0.152816      -2.442  0.000130551
3230   0.0366141    0.151271    -2.71447  0.000220318
3240   0.0339611    0.148934    -3.53256  8.65355e-05
3250   0.0348834    0.149746     -2.5791  8.55941e-06
3260   0.0337899    0.148783    -3.12472  0.000120741
3270   0.0324686    0.147619    -2.17006  0.00013233
3280   0.0311433    0.146451    -5.03376  0.000166519
3290   0.0291382    0.144685    -3.12498  8.79978e-05
3300   0.0293833    0.144901    -2.58004  7.71338e-05
3310   0.0275955    0.143326    -4.76208  9.98378e-05
3320   0.0273866    0.143142    -5.17006  0.000111585
3330   0.0253638     0.14136     -4.0791  0.000145834
3340   0.0244699    0.140572    -4.89772  4.40657e-05
3350   0.0244825    0.140583    -3.26089  -1.26595e-06
3360   0.0244952    0.140594    -3.53389  0.000146933
3370   0.0215438    0.137994    -4.48801  0.000169988
3380   0.0210954    0.137599    -4.89732  0.000136386
3390   0.0188161    0.135591    -4.76129  0.000136661
3400   0.0183622    0.135191    -5.03429  6.84001e-05
3410   0.0174481    0.134386    -4.76195  0.000206411
3420    0.014234    0.131554    -4.35184  0.000137838
3430   0.0146913    0.131957    -4.21621  9.24564e-05
3440   0.0123849    0.129925    -4.35264  0.000219458
3450   0.0103022    0.128091    -3.94373  0.00012769
3460  0.00983107    0.127676    -3.80743  8.81264e-07
3470   0.0102846    0.128075    -4.76182  3.57321e-05
3480  0.00911643    0.127046    -5.30743  7.05499e-05
3490  0.00887356    0.126832    -4.48935  0.000140606
3500   0.0063043    0.124568    -4.62605  0.000327195
3510  0.00232965    0.121067    -3.94373  0.000153137
3520  0.00324155     0.12187    -2.98961  7.22164e-05
3530  0.000885323    0.119794     -3.8085  0.000142386
3540  0.00039383    0.119361    -3.80796  1.40713e-05
3550  0.000603896    0.119546    -3.67246  8.45879e-05
3560  -0.00129793    0.117871    -2.99041  0.000131707
3570  -0.00203024    0.117226    -2.71701  3.80257e-05
3580  -0.00205844    0.117201    -2.17206  0.000144321
3590  -0.00491666    0.114683    -2.30756  2.64538e-05
3600  -0.00258752    0.116735    -1.49121  3.28263e-06
3610  -0.00498231    0.114625    -2.99094  0.000121391
3620  -0.00501533    0.114596    -2.17246  -2.04243e-05
3630  -0.00457383    0.114985    -2.58177  -8.56873e-06
3640  -0.00484395    0.114747    -2.44573  7.46677e-05
3650  -0.00606718    0.113669    -2.71847  0.000182121
3660  -0.00848638    0.111538    -2.99054  0.000146781
3670  -0.00900279    0.111083     -2.5823  1.58461e-05
3680  -0.00880331    0.111259    -2.58203  -8.00337e-06
3690  -0.00884272    0.111224    -2.85571  7.59329e-05
3700   -0.010322    0.109921    -3.53735  8.80735e-05
