Time   C(t)   
ps   
0           1           1  9.77532e-09   0.0956169
10   0.0424549    0.119316       23.26   0.0482467
20   0.0350667    0.112521     7.20765  0.000876392
30   0.0249271    0.103195      7.2133  0.000741046
40   0.0202458   0.0988899     4.00596  -0.00076536
50   0.0402343    0.117274    -1.14962  -4.51301e-05
60   0.0211484     0.09972   -0.498745  0.000845797
70   0.0233183    0.101716     10.4188  -7.96886e-05
80   0.0227422    0.101186     12.9915  0.000401821
90   0.0152819   0.0943245    0.141467  0.000126686
100   0.0202084   0.0988555     5.92158  -0.000148308
110   0.0182481   0.0970525    0.142094  -0.000597712
120   0.0321627     0.10985     1.41625  -0.000667225
130   0.0315926    0.109326    -3.71738  0.000160835
140    0.028946    0.106892     5.26882  0.00071505
150   0.0172916   0.0961728     7.20828  -1.18106e-05
160   0.0291822    0.107109    -8.86292  0.000440397
170  0.00848362   0.0880719    -6.92911  0.000300713
180   0.0231679    0.101577     2.70483  -0.000531248
190   0.0191086    0.097844      2.7042  -8.08718e-05
200   0.0247854    0.103065      1.4106  0.000163317
210   0.0158422   0.0948398    -1.15088  0.000441885
220   0.0159477   0.0949368     7.20012  -0.000324729
230   0.0223368    0.100813    -5.65872  2.43677e-05
240   0.0154603   0.0944886     9.76411  0.000163659
250   0.0190636   0.0978026   -0.511917  -0.000955971
260   0.0345797    0.112073    0.113237  -0.000396497
270   0.0269936    0.105096     8.47867  0.00100501
280   0.0144796   0.0935865     17.4711  0.000198975
290   0.0230141    0.101436     4.62233  -1.04906e-05
300   0.0146894   0.0937795    -10.8018  -0.000257757
310   0.0281692    0.106177    0.764114  2.46986e-05
320   0.0141954   0.0933252     6.54988  0.000834521
330   0.0114788   0.0908266    -4.37139  0.000377857
340  0.00663828   0.0863747    -2.43507  0.000661268
350  -0.00174655   0.0786629     -10.144  -0.000752698
360   0.0216922     0.10022    -14.0141  -0.0011776
370   0.0218054    0.100324    -3.73557  -8.22315e-05
380   0.0233369    0.101733    -2.45326  -0.000259777
390   0.0270009    0.105103     2.04579  -0.000295731
400   0.0292515    0.107173     5.25251  0.000201464
410   0.0229716    0.101397     10.3962  5.9036e-05
420   0.0280708    0.106087     8.46675  -0.000225343
430   0.0274785    0.105542     3.96142  0.000416033
440   0.0197501    0.098434    -1.17158  0.000452242
450   0.0184337   0.0972232     2.04391  9.60317e-05
460   0.0178295   0.0966675      1.3968  -1.10925e-05
470   0.0186555   0.0974273    -2.45326  0.000311382
480   0.0116018   0.0909398    0.757842  2.47246e-05
490    0.018161   0.0969725    -5.02792  -0.00130281
500   0.0376581    0.114905    -5.68068  0.00034827
510   0.0111956   0.0905662     6.53796  0.00052646
520   0.0271289    0.105221    -4.39397  -0.000658648
530   0.0243686    0.102682    -3.11229  0.00110552
540  0.00501854   0.0848849    -7.58939  0.000132545
550   0.0217177    0.100244    -7.60571  -0.000479447
560   0.0146075   0.0937042    -3.10916  0.000603276
570  0.00965216   0.0891466     6.53168  -0.000228045
580   0.0191684    0.097899    -4.39021  -0.000372736
590   0.0171069    0.096003    -10.8193  -0.000301581
600      0.0252    0.103446    -15.9586  0.000642658
610  0.00425372   0.0841815     7.18193  0.000642481
620   0.0123504   0.0916282    -9.52823  -0.000300955
630   0.0102728   0.0897174     2.67723  -0.00019283
640    0.016207   0.0951753    0.740276  -0.000338719
650   0.0170472    0.095948     11.6628  0.000354073
660  0.00912552   0.0886622    -9.53199  0.000208146
670   0.0128843   0.0921193     8.44605  -0.000229905
680   0.0137236   0.0928913     1.38175  -0.000193922
690   0.0167627   0.0956864     2.66907  0.000319191
700   0.0073398   0.0870199     15.5179  0.000502765
710  0.00670742   0.0864382     2.67409  0.00017356
720  0.00386859   0.0838273    -1.18162  -0.000341257
730   0.0135326   0.0927155     -6.3303  -0.000599134
740   0.0158513   0.0948481    -8.26161  -4.7769e-05
750   0.0144879   0.0935942     9.08249  -0.000380267
760   0.0234566    0.101843     2.01443  0.000543232
770  0.00362329   0.0836017     7.80897  0.000283916
780   0.0177783   0.0966205     2.65401  -0.000269086
790    0.009005   0.0885514     5.23306  0.00106364
800  -0.00349444   0.0770553     7.16562  -0.000307366
810   0.0151523   0.0942053      11.654  -0.000640704
820  0.00931965   0.0888408     5.87453  0.000360753
830  0.00793726   0.0875694    -1.19228  -0.000866898
840   0.0266576    0.104787   0.0787347  -0.000457689
850    0.017091   0.0959884    -3.12798  0.000286048
860   0.0209366   0.0995253     1.36418  -0.00016085
870    0.020308   0.0989472    -2.48589  0.000623868
880  0.00845928   0.0880495     3.94322  -0.000348744
890   0.0272829    0.105362    -3.13927  -0.000722607
900   0.0229114    0.101342     9.71079  0.000250032
910   0.0222823    0.100763     3.28231  0.000250791
920   0.0178956   0.0967284     5.86135  0.000965579
930  0.00297069   0.0830015     1.37296  0.000289542
940   0.0121048   0.0914024    -2.48902  -0.000311455
950  0.00919979   0.0887306    -12.1211  -1.09932e-05
960   0.0123246   0.0916046    -1.21299  -0.000237295
970   0.0139457   0.0930955     3.28858  -0.000200095
980   0.0163265   0.0952852    -2.49529  0.000253733
990  0.00887104   0.0884282     -4.4197  -8.73011e-05
1000   0.0180726   0.0968911    -12.1292  -0.00065562
1010   0.0219834    0.100488    -5.07434  -0.000315565
1020   0.0243839    0.102696     -7.6446  -0.000126245
1030   0.0245083     0.10281    -6.36543  0.000939137
1040  0.00560112   0.0854208    -16.6295  0.000559106
1050   0.0133262   0.0925258    -21.7688  -0.000277435
1060   0.0111498   0.0905241    -7.63707  2.69263e-05
1070   0.0127877   0.0920305    -8.28482  0.000333078
1080  0.00448826   0.0843972    -12.7745  0.000448099
1090  0.00382571   0.0837879    -15.9925  -0.000661759
1100   0.0177234     0.09657    -12.7883  -0.000355519
1110   0.0109361   0.0903275    -11.5028  0.000679498
1120  0.00413346   0.0840709    -12.1481  -4.9522e-05
1130   0.0119265   0.0912384    -13.4228  -0.000241279
1140  0.00895905   0.0885091    -3.79266  -0.00051219
1150   0.0221703     0.10066    -1.23055  -0.000126627
1160   0.0114916   0.0908384    -7.64962  0.000335222
1170   0.0154659   0.0944937    -3.79329  -0.000243207
1180   0.0163557   0.0953121    -21.7807  -0.000243933
1190   0.0203445   0.0989807    -12.1468  -0.000283068
1200   0.0220171    0.100519    -10.8645  0.000259357
1210   0.0151574     0.09421    -16.0056  0.00060906
1220  0.00983586   0.0893156    -12.7883  0.000610536
1230  0.00294668   0.0829794     0.06242  0.000300377
1240  0.00382831   0.0837902    -12.7826  -0.000400084
1250   0.0109484   0.0903388    -7.65527  -0.00133717
1260   0.0305717    0.108387    -7.02949  -0.000519118
1270   0.0213307   0.0998878     3.25784  0.000768715
1280   0.0151974   0.0942468    -5.09254  -5.16238e-05
1290   0.0223632    0.100837      -12.16  0.000380235
1300  0.00759274   0.0872525    -7.65778  -0.000169604
1310   0.0257553    0.103957    -17.3036  -0.000678887
1320   0.0211705   0.0997404    -8.31179  0.000891716
1330  0.00792099   0.0875544    -7.01568  -5.19069e-05
1340   0.0222086    0.100695    -10.8846  -0.000405286
1350   0.0160267   0.0950095    -11.5154  0.000421539
1360   0.0137778   0.0929411    -10.8752  0.000501783
1370  0.00599104   0.0857794    -6.37735  0.000265233
1380  0.00847318   0.0880623    -10.8814  -0.000644612
1390   0.0188833   0.0976368    -3.81901  -0.000368048
1400   0.0158341   0.0948324    -2.52729  -0.000250579
1410   0.0238949    0.102246    -4.46173  0.00038548
1420  0.00812455   0.0877416    -5.09692  0.000424785
1430   0.0153992   0.0944323     1.96424  -0.000369727
1440   0.0155191   0.0945426    -15.3805  0.000267215
1450   0.0100549    0.089517    -3.17315  0.000227577
1460   0.0109675   0.0903564     5.81368  -0.000291289
1470   0.0158806   0.0948751    -5.74655  0.000188619
1480  0.00719516   0.0868868     9.66939  -0.000653347
1490   0.0289476    0.106893     1.94855  0.000349998
1500  0.000195206   0.0804488    -6.38802   0.0011111
1510   0.0067256    0.086455   0.0360709  -5.05326e-05
1520  0.00120586   0.0813783     4.53262  0.000190233
1530  0.00292095   0.0829557     4.52886  -0.000212026
1540  0.00544638   0.0852784     5.16405  -0.000252842
1550  0.00797779   0.0876066    -6.39618  -0.000617121
1560   0.0177888   0.0966301     3.23588  -0.000415869
1570   0.0162952   0.0952564     2.59379  -0.000174498
1580   0.0212788     0.09984     1.30771  0.000312111
1590   0.0100529   0.0895152     9.02352  0.000474295
1600   0.0117929   0.0911155     1.95358  -0.000133551
1610    0.012724   0.0919719    -2.54423  -0.000703694
1620   0.0258667     0.10406    -1.26631  -0.000256428
1630   0.0178525   0.0966887     5.80363  0.00121034
1640  0.00166001    0.081796     3.88677  -5.34355e-05
1650   0.0189212   0.0976717    -7.04893  -0.000296917
1660  0.00759835   0.0872577    -1.26003  0.000437621
1670   0.0101688   0.0896218    -5.76035  0.000152564
1680  0.00454708   0.0844513     3.87735  -0.000340056
1690   0.0169699    0.095877    -7.05081  -0.00042197
1700   0.0129865   0.0922133    -3.84159  0.000275407
1710   0.0114618    0.090811    -8.97836  -0.000176868
1720   0.0165238   0.0954667    -5.12579  0.000565418
1730  0.000153446   0.0804104    -10.8952  -0.000301595
1740   0.0225557    0.101014    -4.49059  -0.00112677
1750   0.0226888    0.101137    -6.42252  2.80612e-05
1760   0.0219945    0.100498    -11.5518  0.000110959
1770   0.0204696   0.0990958     2.57246  -0.000303728
1780   0.0280691    0.106085    -3.20891  -0.000511617
1790    0.030702    0.108507    -0.63865  0.000609811
1800   0.0158728    0.094868  0.00721578  0.00073516
1810   0.0159988   0.0949838    -4.48934  -5.43036e-05
1820   0.0169589   0.0958669     1.93852  0.000321316
1830  0.00957246   0.0890733    0.658721  -0.000556117
1840   0.0280812    0.106096    0.645543  -0.000137425
1850    0.012321   0.0916012    -7.06022  0.00048861
1860    0.018309   0.0971086  -0.00344799  -5.4199e-05
1870   0.0134049   0.0925982     2.56995  -0.000391018
1880   0.0261294    0.104301     3.84473  -1.24153e-05
1890   0.0136532   0.0928265    -1.28325  0.000449158
1900   0.0171462   0.0960392    -10.9266  0.000493411
1910  0.00378502   0.0837504    -14.1252   0.0010001
1920  -0.00285579   0.0776427    -6.41751  0.000115503
1930  0.00147497   0.0816258    -12.2058  -0.0009837
1940   0.0168182   0.0957374    -16.0659  -0.000222859
1950  0.00593214   0.0857252    -11.5631  0.000920282
1960  -0.00158743   0.0788092    -4.49875  -0.000691164
1970   0.0197554   0.0984389    -3.22522  -0.000520988
1980  0.00883232   0.0883926     -1.9335  0.00151946
1990  -0.0106337   0.0704891    -15.4162  -0.000310433
2000    0.015041   0.0941029    -9.00596  -0.00129014
2010    0.015169   0.0942206    -7.72616  7.26539e-05
2020   0.0135879   0.0927664     3.19699  0.000842985
2030  -0.00169067   0.0787143     3.85351  0.000287249
2040  0.00784291   0.0874826     10.9053  -0.000525562
2050  0.00882057   0.0883818  -0.0134899  0.000675279
2060  -0.00566266   0.0750611     6.41938  -0.000399188
2070   0.0168043   0.0957247     5.76725  -0.000354801
2080  0.00143335   0.0815875     8.98275  0.000159309
2090   0.0136181   0.0927943     5.12139  -0.00039977
2100  0.00942875   0.0889411    -4.51318  0.00011689
2110   0.0112803   0.0906441     3.83155  0.000290693
2120   0.0036149    0.083594     5.76474  0.000594178
2130  -0.000603212   0.0797144   -0.656211  -0.000445472
2140   0.0125243   0.0917882    -3.87798  -0.000662734
2150   0.0126515   0.0919052    -9.02102  0.000117775
2160   0.0101688   0.0896218     1.26192  -0.000274105
2170   0.0181336   0.0969472     2.53607  -0.000361364
2180   0.0173961    0.096269     3.17754  0.000947216
2190  -0.000810739   0.0795236     9.60979  0.000686176
2200  0.00367258    0.083647    -11.5812  -0.000886715
2210   0.0169236   0.0958343    -1.95923  -0.000800757
2220   0.0196877   0.0983766     5.75157  0.000162162
2230   0.0136803   0.0928514     4.46612  0.000997067
2240  -0.000253613    0.080036     5.75972  0.000383035
2250  0.00601961   0.0858056     6.40119  -0.000495943
2260  0.00966525   0.0891587    -4.52823  -1.20682e-05
2270  0.00626098   0.0860276  -0.0298041  -0.000365979
2280   0.0169848   0.0958907     1.24749  0.000474453
2290  -0.00322808   0.0773003     14.7459  0.000783726
2300  0.00131032   0.0814744     4.46111  -0.000143979
2310  -0.000348498   0.0799487     7.67471  -0.000677652
2320   0.0148634   0.0939395      7.0276  -0.000989581
2330   0.0194431   0.0981517      8.9495  7.57128e-05
2340   0.0133491   0.0925468      9.5941  0.000699364
2350  0.00545584   0.0852871     15.3755  0.000522514
2360  0.00289882   0.0829354   -0.675658  -0.00019095
2370  0.00927484   0.0887996     17.9457  -0.000369894
2380   0.0102967   0.0897394     2.52603  0.00142144
2390  -0.0191539   0.0626528     7.68036  0.000256413
2400  0.00516843   0.0850228    -3.25094  -0.00131207
2410  0.00708758   0.0867879     14.0957  0.000167781
2420  0.00181282   0.0819365     17.9526  7.76404e-05
2430  0.00553477   0.0853597     17.3074  0.000349117
2440  -0.00516951   0.0755147     13.4561  -0.00050919
2450   0.0157186   0.0947261     8.30489  -0.00077984
2460   0.0104273   0.0898595     12.8027  0.000212784
2470   0.0114629    0.090812     6.37547  0.000259125
2480   0.0052448    0.085093     10.8789  0.000895114
2490  -0.0064394   0.0743467     14.0957  0.000305979
2500  -0.000874776   0.0794647     8.31242  -0.000420602
2510  0.00197265   0.0820835     13.4486  -0.000421907
2520  0.00756337   0.0872255     11.5154  0.000170678
2530  -0.00144091    0.078944     10.8764  -0.000424169
2540   0.0160468   0.0950279     8.94197  -0.000331973
2550  0.00519855   0.0850505     15.3705  0.00094876
2560  -0.00292843   0.0775759     7.66343  -0.000517369
2570   0.0155459   0.0945673     6.36292  -0.000884681
2580   0.0147652   0.0938492     6.36606  0.000446385
2590  0.00661824   0.0863562     13.4354  3.22976e-05
2600   0.0141192   0.0932551     8.93884  -0.000381909
2610   0.0142564   0.0933813     6.36794  0.00040218
2620  0.00607564   0.0858572     11.5091  0.00118939
2630  -0.00953143   0.0715029     1.88081  -0.000198039
2640   0.0100364      0.0895     13.4285  -0.000892209
2650  0.00831275   0.0879147     11.5003  -1.32574e-05
2660   0.0103016   0.0897439     7.64774  -0.000199154
2670   0.0122958   0.0915781    0.579048  0.000405996
2680  0.00218165   0.0822758     6.36669  0.00049959
2690  0.00230402   0.0823883     10.2236  0.000314782
2700  -0.00411398   0.0764855     5.72961  -0.000760826
2710   0.0175205   0.0963834    0.572147  -0.000995228
2720   0.0157906   0.0947923     1.22052  0.00045471
2730  0.00842634   0.0880192     3.78514  0.000549527
2740  0.00480002    0.084684     8.29047  3.38396e-05
2750  0.00774955   0.0873967     1.22365  -0.000907746
2760   0.0229549    0.101382     5.06995  0.000128373
2770  0.00518208   0.0850353      2.5091  0.000362631
2780   0.0157023   0.0947111     6.35414  0.000460203
2790  -0.00402197   0.0765701     15.3573  0.000317277
2800  0.00935679    0.088875     8.28482  -0.000343619
2810  0.00285041   0.0828908     3.79141  0.000841547
2820  -0.00747416    0.073395    -3.90872  0.000225263
2830  -0.00165486   0.0787472     7.64837  -0.000630375
2840  0.00513334   0.0849905    -2.63268  -0.000775169
2850   0.0138485   0.0930061     3.78387  -0.000251774
2860   0.0101688   0.0896218     14.7014  0.000129319
2870   0.0112621   0.0906274    -1.35351  0.000369519
2880  0.00277844   0.0828246     3.14366  0.000465819
2890  0.00194575   0.0820588    -1.99937  -0.000348932
2900  0.00975707   0.0892431    -5.21487  -0.000637926
2910   0.0147043   0.0937932     8.91311  0.000371665
2920  0.00232378   0.0824065     11.4859  0.000275011
2930  0.00920405   0.0887345     -3.9382  3.56157e-05
2940  0.00161147   0.0817513    -13.5709  0.00017982
2950  0.00560764   0.0854267    -5.85634  -0.00025485
2960  0.00670847   0.0864392    -4.57214  3.53018e-05
2970  0.00490161   0.0847774     3.13614  0.000132361
2980  0.00406124   0.0840045    -4.57841  8.41559e-05
2990  0.00321849   0.0832294      1.8463  0.000181838
3000  0.000424475   0.0806596     -4.5734  0.000328594
3010  -0.00335339    0.077185    -4.56838  -1.2564e-05
3020  0.000675755   0.0808907    -2.01192  -0.00099067
3030     0.01646    0.095408    -3.30364  -0.000110639
3040  0.00288854   0.0829259  -0.0850081  0.00032858
3050  0.00988841   0.0893639     6.32466  0.000134436
3060  0.000199823    0.080453    -3.94071  -1.40205e-05
3070   0.0101688   0.0896218    -5.87766  -0.000111211
3080  0.00242404   0.0824987     1.19668  -6.3457e-05
3090    0.011438   0.0907891    -5.23369  -0.000111855
3100  0.00466114   0.0845562  -0.0975527  8.46711e-05
3110  0.00974454   0.0892316     3.75439  0.000383209
3120  -0.00300304   0.0775072   -0.734004  3.55209e-05
3130  0.00903412   0.0885782    -5.87515  -0.000459728
3140  0.00619152   0.0859638     3.11544  0.000284674
3150  0.00334065   0.0833417     8.25973  -0.000412557
3160   0.0144426   0.0935526    0.537645  0.000186469
3170  -0.000388734   0.0799117     4.40276  0.000185116
3180   0.0107403   0.0901474     -3.3143  -0.000563651
3190   0.0108843   0.0902798    -7.16875  0.000436979
3200  0.00200074   0.0821094    -6.53043  0.000738975
3210  -0.0038952   0.0766867    -5.23933  0.000188042
3220  -0.0017601   0.0786504    -10.3792  -1.23165e-05
3230  -0.00364887   0.0769132    -2.66719  -0.000517165
3240  0.00858319   0.0881635     1.17535  -0.000113442
3250  -0.00138003       0.079    -3.31995  0.000947201
3260  -0.0103608     0.07074    -15.5172  -0.000114116
3270  0.000902278   0.0810991    -14.2381  -0.000721972
3280   0.0040786   0.0840204    -5.24874  -0.000521415
3290   0.0113306   0.0906903    -11.0351  -0.000369958
3300   0.0114778   0.0908257    -3.97145  0.000240159
3310  0.00652741   0.0862727    -20.0263  0.00100633
3320  -0.00864885   0.0723146    -16.8127  -0.000218593
3330   0.0108993   0.0902936    -2.69291  -0.00031906
3340  -0.00226765   0.0781836      -8.468  0.00060067
3350  -0.00111412   0.0792445    -12.3187  -0.000269619
3360  0.00312474   0.0831431    -5.90024  -0.000321641
3370  0.00531869    0.085161    -3.33061  -0.000219728
3380  0.00751931    0.087185     -10.398  0.00029557
3390  -0.000592721   0.0797241    -8.47365  0.000192335
3400  0.00367261    0.083647    -9.11762  -0.000427177
3410  0.00795082   0.0875818    -7.83532  0.000608158
3420  -0.00849055   0.0724602     -3.9702  0.000764163
3430  -0.00733245   0.0735253    -4.61543  -0.000427925
3440  6.79497e-05   0.0803317    -9.12139  -0.000324618
3450  -0.00084008   0.0794966    -14.2563  -1.33562e-05
3460  0.000335075   0.0805774    -3.33751  -0.000169922
3470  0.00255836   0.0826222    -8.47679  0.000248106
3480  -0.00462705   0.0760136   -0.766624  0.000300534
3490  -0.00345231    0.077094    -16.1876  -0.000432472
3500  0.00402238   0.0839687    -7.83846  -0.000696072
3510   0.0104691    0.089898    -7.84473  -0.000171983
3520  0.00746205   0.0871323    -11.6986  0.000512022
3530  0.000228686   0.0804796    -8.47741  0.00040769
3540  -0.000691738    0.079633    -11.6954  0.000938207
3550  -0.0185355   0.0632216    -13.6148  -0.000490069
3560  0.00910965   0.0886476    -12.9809  -0.00107151
3570  0.00289464   0.0829315    -14.2707  0.000250604
3580  0.00409758   0.0840379    -20.6935  -0.000226892
3590  0.00743248   0.0871051    -16.8441  0.000465328
3600  -0.00520898   0.0754784    -16.1951  0.00110601
3610  -0.0146877   0.0667605    -19.4018  9.40498e-05
3620  -0.00708997   0.0737484    -20.6916  -0.00118928
3630    0.009098   0.0886369    -18.7742  -0.000173482
3640  -0.00362034   0.0769395    -23.9097  0.000414495
3650  0.000808106   0.0810125    -18.1339  -0.000228368
3660  0.000947027   0.0811402    -18.7798  9.3842e-05
3670  -0.00106873   0.0792863    -18.7748  -0.000391707
3680  0.00878117   0.0883455    -26.4862  -0.000770353
3690   0.0143383   0.0934566    -20.7098  0.000742647
3700  -0.00607177   0.0746848    -26.4862  0.00106827
3710  -0.00702707   0.0738062    -18.7767  -0.000393085
3720  0.00178992   0.0819155    -16.2114  -0.000393559
3730  0.000844106   0.0810456    -23.9172  -0.000504559
3740   0.0118811   0.0911966    -20.0715  0.00036788
3750  -0.0065135   0.0742786    -16.2158  0.000585324
3760  0.000174621   0.0804298    -19.4288  -0.000286681
3770  -0.000779891   0.0795519    -21.3526  -0.000123722
3780  0.00264907   0.0827057    -21.3601  -0.000178689
3790  0.00279389   0.0828388    -26.4981  0.000480571
3800  -0.00696235   0.0738657    -13.6481  9.56449e-05
3810  0.000880989   0.0810795    -19.4313  9.7378e-05
3820  -0.00890991   0.0720745    -23.9209  -1.42878e-05
3830  0.00116675   0.0813423    -16.8648  -0.000732475
3840  0.00573958   0.0855481     -15.585  4.10752e-05
3850  0.000345241   0.0805868    -19.4319  0.000318128
3860  -0.00062297   0.0796963    -18.7955  0.000542071
3870  -0.0104962   0.0706156     -20.718  0.000208751
3880  -0.00479799   0.0758564    -16.2258  -0.000180022
3890  -0.00689575    0.073927    -16.2265  9.82999e-05
3900  -0.00676399   0.0740482     -13.655  -6.92005e-05
3910  -0.00551174   0.0751999    -12.3733  -0.000349807
3920  0.000232162   0.0804828    -16.8742  -0.000856267
3930   0.0116136   0.0909506    -9.81116  0.000379515
3940  -0.00735814   0.0735017    -19.4476  0.000941983
3950  -0.00722605   0.0736232    -20.0853  0.000156165
3960  -0.0104815   0.0706291    -11.7318  -6.9834e-05
3970  -0.00582937   0.0749078    -13.0242  -0.000352676
3980  -0.00342793   0.0771165    -21.3726  4.3196e-05
3990  -0.00669329   0.0741132     -21.377  0.000554448
4000  -0.0145169   0.0669176    -16.2359  0.000214294
4010  -0.0109792   0.0701713    -20.0922  -0.00138094
4020   0.0131019   0.0923194    -14.9661  -0.000298417
4030  -0.00501084   0.0756606    -16.2384  0.00118485
4040  -0.0105951   0.0705245    -23.9448  0.000158133
4050  -0.00817351   0.0727518    -19.4495  -0.000357406
4060  -0.00344702   0.0770989    -10.4558  -0.000358418
4070  -0.00100514   0.0793448    -18.1659  0.000446722
4080  -0.0123815   0.0688816    -29.7299  0.000158525
4090  -0.00417564   0.0764288    -18.1709  0.000218529
4100   -0.016752   0.0648619    -14.9536  -7.20131e-05
4110  -0.00273538   0.0777534    -11.7462  -0.000302005
4120  -0.0107119   0.0704171    -21.3802  0.000857113
4130  -0.0198776   0.0619871    -13.6744  -1.3065e-05
4140  -0.0104506   0.0706574    -16.8874  -1.15216e-05
4150  -0.0196472   0.0621991    -19.4526  -0.000129955
4160  -0.00785155   0.0730479    -18.8181  -0.00141559
4170  0.00866456   0.0882383    -25.2459  -0.000951248
4180   0.0111734   0.0905458    -20.7531  0.000100889
4190  0.00664677   0.0863825    -14.9661  0.000335839
4200  0.00445662   0.0843681    -14.9699  0.00139747
4210  -0.0213026   0.0606766    -18.8118  4.31349e-05
4220  0.00359392   0.0835747    -11.1161  -0.00101627
4230  -0.000977251   0.0793704    -25.2465  0.000517119
4240  -0.00674846   0.0740625    -14.3278  -0.00019295
4250  0.00288175   0.0829197    -16.8962  -1.40294e-05
4260  -0.00646787   0.0743205    -22.0373  0.00057947
4270  -0.00870765   0.0722605    -18.8237  0.000164746
4280  -0.00976279   0.0712901    -25.2465  -1.37588e-05
4290  -0.00843248   0.0725136    -21.3965  -0.000432434
4300  -0.00111412   0.0792445    -17.5433  -1.38561e-05
4310  -0.00815535   0.0727685    -19.4727  -0.000255347
4320  0.00399283   0.0839415    -13.6939  -0.000194405
4330  -0.00426725   0.0763445    -22.6832  -0.000257152
4340  0.00913586   0.0886718     -19.479  -0.000135418
4350  -0.00155889   0.0788355    -13.6964  0.000406198
4360  0.00101191   0.0811999    -20.1217  -0.000318114
4370  0.00480339    0.084687    -11.7738  0.000651832
4380  -0.0120247   0.0692097    -18.1873  0.000591524
4390  -0.0070271   0.0738062    -14.3378  -0.000196145
4400  -0.00810183   0.0728177    -17.5527  -0.000319412
4410  -0.000638864   0.0796816    -16.2672  -0.000442031
4420  0.000738795   0.0809487    -10.4865  -7.67845e-05
4430  0.000896826   0.0810941    -3.42472  0.000352211
4440  -0.00630543   0.0744699    -4.06117  0.000598623
4450  -0.0110756   0.0700826    -5.33971  -1.46151e-05
4460  -0.00601313   0.0747388    -7.27477  -1.37795e-05
4470     -0.0108   0.0703361    -16.9131  -0.000508999
4480  0.00416685   0.0841016    -16.2735  -0.000385261
4490  -0.00309482   0.0774228    -16.9162  0.000665478
4500  -0.00914272   0.0718604    -17.5558  0.000978625
4510  -0.0226673   0.0594214    -9.19919  -0.000636616
4520  0.00358961   0.0835707    -22.0593  -0.000697657
4530  -0.00871418   0.0722545    -13.7064  0.000483068
4540  -0.00607175   0.0746849    -22.0549  0.000110742
4550   -0.010929   0.0702175    -15.6339  -7.76205e-05
4560  -0.00451934   0.0761127    -18.8475  -0.000328104
4570  -0.00436695   0.0762528    -6.64146  0.00061398
4580  -0.0167989   0.0648187    -22.6932  -7.83662e-05
4590  -0.00279962   0.0776943    -22.7026  -0.000644629
4600  -0.00390634   0.0766764    -19.4909  -0.000395322
4610  0.00510683   0.0849661    -22.7095  -7.88883e-05
4620  -0.00232857   0.0781276    -14.9981  0.00106248
4630  -0.0161427   0.0654223     -23.341  -0.000143106
4640  0.000533537   0.0807599    -24.6321  5.04524e-05
4650  -0.0171518   0.0644942    -15.6377  4.74226e-05
4660  -0.000414916   0.0798876    -25.2823  -1.31561e-05
4670  -0.0168887   0.0647362    -16.9219  -1.63268e-05
4680  -8.838e-05   0.0801879    -24.6433  -0.00155473
4690    0.014206    0.093335    -17.5784  0.000691394
4700  -0.0139163     0.06747    -21.4209   0.0011413
4710  -0.00861987   0.0723413    -17.5753  -0.000918198
4720  0.00444769   0.0843599    -16.2961  -0.000209071
4730  -0.00443846    0.076187    -16.2942  -1.74386e-05
4740  0.00479647   0.0846807    -19.5116  0.000503921
4750  -0.0145169   0.0669176    -18.8601  0.000763465
4760  -0.0104728    0.070637    -18.8664  -0.000926863
4770  0.00402038   0.0839669     -18.228  -0.000864075
4780  0.00680867   0.0865314    -17.5885  4.79387e-05
4790  0.00306161   0.0830851    -15.6597  0.000637775
4800  -0.00594683   0.0747997    -12.4435  0.000376874
4810  -0.00447587   0.0761526    -7.95263  -1.5699e-05
4820  -0.00563285   0.0750885    -17.5853  0.000181887
4830  -0.0081136   0.0728069    -13.0919  0.000512941
4840  -0.0158917   0.0656532    -20.1531  -0.0012074
4850   0.0160343   0.0950165    -21.4479  -0.000345651
4860  -0.00897864   0.0720113    -24.0138  0.000312272
4870   0.0097889   0.0892724    -19.5223  -0.000548187
4880   0.0019851    0.082095    -22.0881  0.00124911
4890  -0.0151932   0.0662956    -14.3805  -0.00041874
4900   0.0103599   0.0897975    -22.0982  -0.000684205
4910  -0.0015091   0.0788813    -16.3112  0.00118923
4920  -0.0134248   0.0679221    -22.7315  -0.000420529
4930  0.00690148   0.0866167    -15.6728  0.000120208
4940  -0.0158289   0.0657109    -18.2343  0.000116421
4950  0.00457306   0.0844752    -22.7415  -0.00035252
4960  -0.00877852   0.0721954    -13.1001  0.000659776
4970  -0.00862246   0.0723389    -16.9589  -0.00089884
4980  0.00919829   0.0887292    -23.3874  -8.37723e-05
4990  -0.00694701   0.0738798    -18.2456  0.000731296
