Time   Number   
ps   
0           1         101
10           1         101
20           1         101
30           2          99
40           3          99
50           3         100
60           1         101
70           0         103
80           1         100
90           1         102
100           1         101
110           2         100
120           3          99
130           2          99
140           3         100
150           2         101
160           2          99
170           1         101
180           3          99
190           1         101
200           1         100
210           2         100
220           1         101
230           1         100
240           1         101
250           1         102
260           1         101
270           2          99
280           0         101
290           1         101
300           1         100
310           1         102
320           2          99
330           2          99
340           3          99
350           3          98
360           0         102
370           1         101
380           0         102
390           2         100
400           1         100
410           1         101
420           4          98
430           3          99
440           2         100
450           2         100
460           1         102
470           1         101
480           2          99
490           2         100
500           4          97
510           0         100
520           2          99
530           5          98
540           0         103
550           3         100
560           0         100
570           2          99
580           2          99
590           0         100
600           1         101
610           2          99
620           1         101
630           3          99
640           2          99
650           3          99
660           0         100
670           1         100
680           3          99
690           1          99
700           1         101
710           2         101
720           2          99
730           3          99
740           2         101
750           3          98
760           1         101
770           1         101
780           1         101
790           2         100
800           3          99
810           2         100
820           1         100
830           1         100
840           3          99
850           2          99
860           2         100
870           0         100
880           3         100
890           2         100
900           3         100
910           0         101
920           4          98
930           1          99
940           3         100
950           1          99
960           2          99
970           0         102
980           1         101
990           3          99
1000           3         100
1010           8          94
1020           1         100
1030           3         100
1040           2         100
1050           0         102
1060           2         100
1070           1          99
1080           1         101
1090           0         103
1100           1          99
1110           2          99
1120           3          98
1130           2         100
1140           1          99
1150           1         102
1160           2         100
1170           1         101
1180           1         101
1190           0         102
1200           2         101
1210           3         100
1220           2         100
1230           1         101
1240           3          99
1250           2         100
1260           1         101
1270           3          99
1280           3         101
1290           0         102
1300           1         100
1310           3          99
1320           0         101
1330           2         100
1340           3          99
1350           0         102
1360           1         101
1370           3          98
1380           1         100
1390           0         102
1400           2          99
1410           2          99
1420           1         102
1430           3          99
1440           1         101
1450           3          99
1460           2          99
1470           3          98
1480           1         101
1490           0         102
1500           1         100
1510           1         100
1520           2         100
1530           2          99
1540           2          99
1550           0         101
1560           1         102
1570           2          99
1580           0         102
1590           1         100
1600           4          98
1610           4          99
1620           2         100
1630           1         100
1640           1         101
1650           3          99
1660           5          98
1670           3          99
1680           5          97
1690           0         102
1700           3          99
1710           1         101
1720           1         101
1730           1         100
1740           2         100
1750           2         100
1760           0         102
1770           2         100
1780           1         101
1790           2         100
1800           0         101
1810           0         102
1820           1         101
1830           4          97
1840           3          99
1850           2          99
1860           2         100
1870           1         101
1880           2         100
1890           1         101
1900           4          98
1910           1         101
1920           3          98
1930           2          99
1940           4          98
1950           2          99
1960           1         100
1970           1         101
1980           2          99
1990           1         100
2000           0         102
2010           1         101
2020           2          99
2030           2          99
2040           1         100
2050           1         101
2060           0         101
2070           2          99
2080           1         101
2090           1         100
2100           1         101
2110           3          99
2120           2          99
2130           1         101
2140           1         100
2150           3          99
2160           1         101
2170           3          98
2180           2          99
2190           2         100
2200           1         101
2210           0         102
2220           1         101
2230           2         100
2240           0         102
2250           5          97
2260           1         102
2270           1         101
2280           1         101
2290           1         101
2300           4          98
2310           1         101
2320           1         100
2330           1         102
2340           1         101
2350           1         101
2360           1         100
2370           2         100
2380           0         102
2390           1         100
2400           1         100
2410           1         100
2420           1         100
2430           1         101
2440           2          99
2450           2         100
2460           1         101
2470           1         100
2480           1         101
2490           1         101
2500           0         102
2510           2         100
2520           1         100
2530           2         101
2540           3          98
2550           1         102
2560           3          99
2570           2          99
2580           2         100
2590           0         100
2600           2         100
2610           4          98
2620           2         100
2630           2         100
2640           0         100
2650           2          99
2660           2         100
2670           1         100
2680           0         101
2690           1         101
2700           2         100
2710           1         101
2720           1         101
2730           1         101
2740           2         100
2750           0         102
2760           1         101
2770           3         100
2780           1         101
2790           3          99
2800           3          98
2810           0         102
2820           3          98
2830           0         102
2840           4          98
2850           3          99
2860           3          97
2870           1         101
2880           2         100
2890           1         100
2900           1         100
2910           2         100
2920           2         100
2930           2          99
2940           0         101
2950           1         101
2960           3          98
2970           2         100
2980           2         100
2990           2          99
3000           1         100
3010           3          99
3020           1         100
3030           1         100
3040           2         100
3050           1         101
3060           3          99
3070           4          97
3080           2         100
3090           3          99
3100           2          99
3110           0         101
3120           2         100
3130           3         100
3140           2          99
3150           2         100
3160           2         100
3170           1         101
3180           4          97
3190           3          98
3200           2          99
3210           3          99
3220           4          98
3230           4          98
3240           0         101
3250           4          97
3260           2         100
3270           2          99
3280           2         100
3290           2          99
3300           3          99
3310           3          99
3320           3          98
3330           4          97
3340           2         100
3350           2         101
3360           1         100
3370           2         100
3380           1         100
3390           3          98
3400           1         101
3410           1         100
3420           2         100
3430           0         101
3440           1         101
3450           2         100
3460           2         100
3470           3         100
3480           1         101
3490           2          99
3500           3         100
3510           5          96
3520           3          98
3530           1         100
3540           1         100
3550           2          99
3560           2         100
3570           2          99
3580           3          99
3590           3          98
3600           3          99
3610           2         100
3620           1         100
3630           3          98
3640           2          98
3650           6          95
3660           1         101
3670           2         100
3680           2         100
3690           3          99
3700           0         102
3710           1         101
3720           4          98
3730           4          97
3740           1         100
3750           2          99
3760           0         102
3770           2         101
3780           4          97
3790           1         101
3800           0         102
3810           2         100
3820           0         102
3830           2          99
3840           1         101
3850           2         100
3860           0         101
3870           2         100
3880           2         100
3890           1         101
3900           1         101
3910           2          99
3920           0         100
3930           3          99
3940           4          98
3950           1         101
3960           1          99
3970           3          99
3980           4          98
3990           2         100
4000           1         100
4010           1         100
4020           1         100
4030           1         101
4040           1         100
4050           2          99
4060           0         101
4070           1         100
4080           0         101
4090           1         100
4100           1         100
4110           4          97
4120           1         100
4130           0         100
4140           5          96
4150           2          99
4160           1         100
4170           1         100
4180           0         101
4190           2          99
4200           1          99
4210           0         101
4220           3          99
4230           0         102
4240           2          99
4250           3          99
4260           1         101
4270           1         101
4280           2          99
4290           2          99
4300           1         100
4310           2          99
4320           1         100
4330           1         100
4340           1         101
4350           0         101
4360           3          98
4370           1         100
4380           0         101
4390           1          99
4400           1         100
4410           0         101
4420           0         101
4430           0         101
4440           3          98
4450           3          99
4460           2         100
4470           2          99
4480           4          97
4490           0         101
4500           2          99
4510           4          97
4520           2         100
4530           0         102
4540           2          98
4550           2          98
4560           1         101
4570           3          98
4580           1         100
4590           2         100
4600           2         100
4610           1         101
4620           3          98
4630           2         100
4640           2         100
4650           1         100
4660           3          99
4670           1         101
4680           2         100
4690           1         101
4700           2          98
4710           0         101
4720           4          98
4730           1         100
4740           4          98
4750           4          96
4760           2          99
4770           2          99
4780           1          99
4790           1         102
4800           0         102
4810           4          98
4820           1         100
4830           1         100
4840           1          99
4850           0         100
4860           4          98
4870           2          99
4880           1         100
4890           4          97
4900           0         101
4910           0         101
4920           2         100
4930           2          98
4940           3          97
4950           2         100
4960           2          99
4970           3          98
4980           1         100
4990           3          97
5000           3          97
5010           4          97
5020           1         100
5030           1         102
5040           4          98
5050           4          98
5060           2          99
5070           0         101
5080           2          98
5090           1         100
5100           3          98
5110           1          99
5120           2          99
5130           1         100
5140           0         100
5150           0         100
5160           1          99
5170           1         100
5180           3          97
5190           2          98
5200           0         100
5210           4          97
5220           3          98
5230           1          99
5240           2          99
5250           2          99
5260           3          99
5270           1          99
5280           2          99
5290           2          99
5300           1         100
5310           2          98
5320           1         100
5330           2          99
5340           1          99
5350           2          99
5360           0         101
5370           2         100
5380           2          99
5390           1         100
5400           0         102
5410           0         101
5420           3          98
5430           3          98
5440           1         101
5450           0         101
5460           1         100
5470           1         100
5480           3          99
5490           0         101
5500           3          98
5510           0         101
5520           0         101
5530           3          98
5540           0         101
5550           2          99
5560           0         101
5570           1          99
5580           2          99
5590           1         100
5600           5          96
5610           1         101
5620           1         101
5630           4          98
5640           2          99
5650           1         100
5660           1         100
5670           2          99
5680           1         101
5690           2          99
5700           2          99
5710           0         101
5720           0         101
5730           1          99
5740           1         100
5750           0         101
5760           0         101
5770           0         100
5780           2          99
5790           3          98
5800           2          98
5810           2          99
5820           2          98
5830           0         100
5840           1         100
5850           0         100
5860           3          99
5870           0         102
5880           1         100
5890           2          99
5900           1         100
5910           3          98
5920           0         101
5930           3          98
5940           2          99
5950           0         101
5960           2          99
5970           0         101
5980           1         100
5990           0         101
6000           6          95
6010           1         101
6020           2          98
6030           2          99
6040           1          99
6050           2         100
6060           3          99
6070           1         100
6080           1         100
6090           3          98
6100           1         100
6110           4          97
6120           3          98
6130           3          98
6140           0         100
6150           1         100
6160           1         100
6170           2          99
6180           0         100
6190           2          99
6200           0         100
6210           1         101
6220           1         100
6230           0         101
6240           2          99
6250           2          99
6260           3          98
6270           3          97
6280           2          99
6290           3          98
6300           2          99
6310           3          98
6320           2          99
6330           2          98
6340           2         100
6350           4          97
6360           2          99
6370           2          99
6380           1         100
6390           2          99
6400           0         102
6410           0         101
6420           0         101
6430           1         100
6440           4          97
6450           2          99
6460           1         100
6470           1         100
6480           1         100
6490           1          99
6500           2         101
6510           1         100
6520           0         101
6530           1         100
6540           0         100
6550           0         101
6560           1         100
6570           1         100
6580           1         100
6590           3          97
6600           2         100
6610           1         100
6620           1          99
6630           3          98
6640           1         100
6650           3          97
6660           1         100
6670           2          98
6680           1         100
6690           4          97
6700           2          99
6710           1         100
6720           3          99
6730           0         101
6740           1          99
6750           1          99
6760           2          99
6770           1         100
6780           0         101
6790           1         100
6800           2          99
6810           1         100
6820           3          98
6830           0         101
6840           2         100
6850           1         100
6860           1         100
6870           0         101
6880           0         101
6890           3         100
6900           2          99
6910           2          99
6920           2          98
6930           0         101
6940           1         100
6950           1         100
6960           2          99
6970           1         100
6980           1         100
6990           1          99
7000           2         100
7010           0         100
7020           3          98
7030           0         101
7040           5          96
7050           0         100
7060           0         101
7070           0         101
7080           0         101
7090           2         100
7100           4          99
7110           1         100
7120           1         101
7130           1         101
7140           2          99
7150           3          98
7160           1         100
7170           1         100
7180           1         100
7190           3          99
7200           0         101
7210           1         100
7220           1         100
7230           1          99
7240           1         100
7250           0         101
7260           0         102
7270           3          98
7280           0         101
7290           2         100
7300           0         101
7310           0         101
7320           3          99
7330           0         101
7340           0         101
7350           0         101
7360           0         102
7370           1         100
7380           3          99
7390           1         100
7400           2          99
7410           3          99
7420           2          99
7430           0         102
7440           3          98
7450           0         101
7460           1         101
7470           0         100
7480           1          99
7490           1         100
7500           1         100
7510           4          97
7520           2          99
7530           1          99
7540           0         101
7550           2         100
7560           1         100
7570           0         100
7580           1         100
7590           0         101
7600           1          99
7610           0         100
7620           1         100
7630           1         100
7640           1         100
7650           1         100
7660           2          99
7670           2          98
7680           1         101
7690           1         100
7700           2          99
7710           3          98
7720           2          99
7730           1         100
7740           1         100
7750           3          98
7760           1         100
7770           1         100
7780           2          99
7790           2          99
7800           2         100
7810           1          99
7820           1          99
7830           0         100
7840           0         100
7850           0         102
7860           1          99
7870           1          99
7880           3          98
7890           0         101
7900           2          99
7910           4          98
7920           1         100
7930           2          99
7940           1         100
7950           3          99
7960           6          95
7970           1         100
7980           2          98
7990           1         100
8000           4          98
8010           1         101
8020           1         100
8030           1          99
8040           2          99
8050           4          98
8060           2          99
8070           0         101
8080           1          99
8090           1         100
8100           2          99
8110           0         100
8120           1          99
8130           4          97
8140           2          99
8150           2          99
8160           2          99
8170           1         100
8180           2         100
8190           2         100
8200           3          98
8210           4          97
8220           0         100
8230           1         100
8240           2          99
8250           1         101
8260           0         101
8270           0         101
8280           1         100
8290           0         101
8300           2          98
8310           0         100
8320           1         102
8330           1         100
8340           2         100
8350           0         100
8360           2          99
8370           2          98
8380           0         100
8390           2          99
8400           1          99
8410           1         102
8420           0         101
8430           0         101
8440           1         100
8450           1          99
8460           1          99
8470           4          97
8480           3          99
8490           1         100
8500           0         100
8510           3          98
8520           0         100
8530           3          98
8540           1         100
8550           5          95
8560           3          98
8570           1         100
8580           2          98
8590           1         100
8600           0         100
8610           1         100
8620           1         100
8630           2          98
8640           0         101
8650           4          96
8660           1         100
8670           1         100
8680           2          98
8690           1         100
8700           1          99
8710           1         100
8720           1         100
8730           1         100
8740           2          99
8750           2         100
8760           2          98
8770           1         100
8780           3          99
8790           1          99
8800           2          99
8810           2          99
8820           0         100
8830           1         100
8840           0         101
8850           3          99
8860           5          97
8870           0         101
8880           1         100
8890           1          99
8900           0         101
8910           1         100
8920           0         100
8930           2          99
8940           4          97
8950           1          99
8960           0         101
8970           1         100
8980           1         100
8990           2          98
9000           0         101
9010           0         100
9020           2          99
9030           0         102
9040           1         100
9050           0         100
9060           0         100
9070           0         101
9080           2          98
9090           0         102
9100           3          99
9110           2          99
9120           2          99
9130           2         100
9140           2         100
9150           0         102
9160           2         100
9170           1         101
9180           3          99
9190           0         101
9200           3          99
9210           2          99
9220           1         101
9230           1         100
9240           1         100
9250           4          98
9260           0         100
9270           2          99
9280           1         100
9290           3          98
9300           2          99
9310           2         100
9320           3          99
9330           1          99
9340           2          99
9350           0         101
9360           5          96
9370           1         100
9380           1          99
9390           1          99
9400           1         100
9410           1         101
9420           1          99
9430           5          96
9440           2          99
9450           2          99
9460           2          99
9470           2         100
9480           0         100
9490           2          99
9500           0         101
9510           2          99
9520           1         102
9530           1         100
9540           0         100
9550           1         101
9560           1         101
9570           1         101
9580           1         100
9590           3          98
9600           1         101
9610           4          99
9620           0         101
9630           1         101
9640           1         101
9650           1         101
9660           0         102
9670           0         100
9680           3          98
9690           0         101
9700           2         101
9710           0         102
9720           2         100
9730           1         100
9740           2          99
9750           1         101
9760           0         100
9770           1         101
9780           1         101
9790           2          99
9800           2          99
9810           1          99
9820           2         100
9830           3         100
9840           1         100
9850           2          99
9860           1         100
9870           1         101
9880           1         100
9890           0         100
9900           2         100
9910           1         100
9920           1         100
9930           1          99
9940           3          99
9950           3          98
9960           1          99
9970           2          99
9980           3          98
9990           1         100
10000           1         100
