Time   C(t)   
ps   
0           1           1  2.17257e-10   0.0285098
10    0.722174    0.724372   -0.254997   0.0167831
20    0.664339    0.666994   -0.624449  0.00505635
30    0.621047    0.624045    -1.81962  0.00392632
40    0.585813    0.589089    -1.34211  0.00330909
50    0.554865    0.558387   -0.806682    0.002845
60    0.528913    0.532639    0.421455  0.00253653
70    0.504135    0.508057   0.0346318  0.00241474
80    0.480618    0.484727   -0.543763  0.00213747
90    0.461385    0.465646    0.664017  0.00191819
100    0.442254    0.446666  -0.00992967  0.00179289
110    0.425527    0.430072    0.679925  0.00167992
120    0.408656    0.413334     1.88954  0.00151929
130    0.395142    0.399927     1.71465  0.00138638
140    0.380928    0.385826     2.27051  0.00138429
150    0.367456     0.37246     2.57687  0.00125539
160     0.35582    0.360916     1.90249  0.00116772
170    0.344101     0.34929     2.45807  0.00107663
180    0.334288    0.339554     3.45548  0.00105086
190    0.323084    0.328439     2.53232  0.00105297
200    0.313228    0.318661     2.31934  0.000957695
210     0.30393    0.309437     2.10621  0.000958729
220    0.294054    0.299639     2.64329  0.000954702
230    0.284836    0.290494     2.08394  0.000912143
240    0.275811     0.28154     3.04497  0.000800565
250    0.268825    0.274609     2.10171  0.000727445
260    0.261262    0.267106     1.17777  0.000792141
270    0.252982    0.258892     1.96516  0.00078011
280     0.24566    0.251627      2.8677  0.000693083
290    0.239121     0.24514     2.09775  0.000660498
300     0.23245    0.238522     2.88475  0.000699932
310    0.225122    0.231252      2.2309  0.000670014
320     0.21905    0.225228     1.84516  0.000571652
330    0.213689    0.219909     1.30617  0.000539586
340    0.208258    0.214521     1.95893  0.000510314
350    0.203483    0.209784     1.45836  0.000472177
360    0.198814    0.205153     1.57329  0.000445647
370     0.19457    0.200941     1.55316  0.000439673
380    0.190021    0.196429      0.5916  0.000413043
390    0.186309    0.192746   0.0333365  0.000424799
400    0.181525       0.188   -0.793496  0.000427596
410    0.177757    0.184262    0.512764  0.000400911
420    0.173507    0.180045     0.85848  0.000381934
430    0.170118    0.176683    0.550061  0.000355058
440    0.166406       0.173   -0.142177  0.000385502
450    0.162408    0.169034   -0.565716  0.000384322
460    0.158719    0.165375    0.817785  0.000433799
470    0.153732    0.160427    0.279165  0.000397855
480    0.150762     0.15748    0.971065  0.000291386
490    0.147904    0.154645    0.528278  0.000335812
500    0.144046    0.150817    0.508616  0.000332458
510    0.141255    0.148049    0.297044  0.000288337
520    0.138279    0.145096     1.16053  0.000358851
530    0.134078    0.140929    0.871891  0.000369537
540    0.130888    0.137764    0.640995  0.00028831
550    0.128312    0.135208    0.544449  0.000302967
560    0.124829    0.131752    0.370793  0.000327622
570     0.12176    0.128707    0.697334  0.000291196
580    0.119005    0.125975    0.774162  0.000281791
590    0.116124    0.123116     1.19723  0.000302516
600    0.112955    0.119972     1.06219  0.000273911
610    0.110646    0.117681    0.735157  0.00026444
620    0.107666    0.114725    0.830333  0.000308405
630    0.104477    0.111562    0.484355   0.0002565
640    0.102536    0.109636     1.36792  0.000199427
650    0.100489    0.107605     1.38708  0.000210997
660   0.0983159    0.105449    0.848212  0.000234754
670   0.0957939    0.102947    0.386983  0.000225106
680   0.0938138    0.100983    0.194153  0.000170758
690   0.0923787    0.099559   -0.171281  0.000175205
700   0.0903097   0.0975064  0.00132341  0.000206094
710   0.0882568   0.0954697   0.0591461  0.000164745
720   0.0870148   0.0942375   -0.768325  0.000140657
730   0.0854437   0.0926788    -1.01821  0.000144011
740   0.0841346   0.0913801     1.03858  0.000136152
750   0.0827206   0.0899773      1.1149  0.000110839
760   0.0819178   0.0891808  -0.0390143  0.000112144
770   0.0804778   0.0877522    0.595608  0.000111324
780   0.0796913    0.086972    0.402684  9.20873e-05
790    0.078636    0.085925    0.498761  0.000110782
800   0.0774757   0.0847739  -0.0205351  0.000114094
810   0.0763541   0.0836612    0.978639  0.000103012
820   0.0754154   0.0827299     0.93969  0.00010222
830   0.0743097   0.0816329     0.59328  0.000114829
840   0.0731189   0.0804515     1.36201  0.000132651
850   0.0716567   0.0790009    0.650427  0.000126715
860   0.0705846   0.0779373    0.765584  0.000140488
870   0.0688469   0.0762134    0.188991  0.000139725
880   0.0677901   0.0751649    0.342177  0.00011411
890   0.0665647   0.0739492    0.591779  9.14734e-05
900   0.0659606   0.0733499     1.14867  0.000125008
910   0.0640646   0.0714689     1.10999  0.000121045
920   0.0635397   0.0709481    0.975129  6.71554e-05
930   0.0627215   0.0701364     1.45544  7.77326e-05
940    0.061985   0.0694057    0.801473  9.8807e-05
950   0.0607453   0.0681759       1.513  0.000106326
960   0.0598585   0.0672961     1.41641  0.000112869
970    0.058488   0.0659363     1.12841  0.000119385
980   0.0574708   0.0649272     1.16668  9.97238e-05
990   0.0564935   0.0639576    0.782018  0.000103096
1000   0.0554089   0.0628816    0.570108  8.85837e-05
1010   0.0547218      0.0622    0.512398  8.45941e-05
1020    0.053717   0.0612031    0.896555  9.10929e-05
1030   0.0528999   0.0603925     1.41551  9.97532e-05
1040   0.0517219   0.0592239    0.761924  9.04443e-05
1050   0.0510911    0.058598     1.30009  7.05693e-05
1060   0.0503106   0.0578236     1.29974  7.91948e-05
1070   0.0495072   0.0570266     0.76168  9.31572e-05
1080   0.0484474   0.0559752     1.05021  8.16746e-05
1090   0.0478737    0.055406     1.22282  8.93265e-05
1100   0.0466609   0.0542028    0.857475  0.000112901
1110   0.0456157   0.0531659     1.20345  9.61166e-05
1120   0.0447386   0.0522957     1.43369  9.31449e-05
1130   0.0437528   0.0513177     1.35673  0.000109366
1140   0.0425512   0.0501257    0.683688  8.3947e-05
1150   0.0420738   0.0496521     1.04882  6.38464e-05
1160   0.0412743   0.0488589    0.836612  9.93269e-05
1170   0.0400873   0.0476812     1.25981  9.9528e-05
1180   0.0392837   0.0468841    0.990605  7.40038e-05
1190   0.0386072   0.0462129    0.164148  6.77312e-05
1200   0.0379291   0.0455402    0.144542  9.15626e-05
1210   0.0367759   0.0443961    0.432792  0.000108985
1220   0.0357494   0.0433777    0.394331  6.71716e-05
1230   0.0354325   0.0430633    0.797644  6.52036e-05
1240   0.0344453   0.0420839    0.836086  8.80167e-05
1250   0.0336722   0.0413169   -0.125152  5.79238e-05
1260   0.0332869   0.0409346     1.06676  3.96593e-05
1270    0.032879     0.04053     1.04711  6.03609e-05
1280   0.0320796    0.039737     1.16257  7.89426e-05
1290   0.0313001   0.0389636     1.12389  6.49905e-05
1300   0.0307798   0.0384474     1.12387  5.31777e-05
1310   0.0302366   0.0379085     1.12357  6.2017e-05
1320   0.0295395   0.0372169     1.14278  4.25122e-05
1330   0.0293863    0.037065    0.892558  2.51624e-05
1340   0.0290363   0.0367176     1.50735  4.27065e-05
1350   0.0285322   0.0362176     1.39202  3.29451e-05
1360   0.0283774   0.0360639    0.757607  4.61953e-05
1370   0.0276083    0.035301    0.757532  5.39467e-05
1380   0.0272984   0.0349935    0.545828  1.78412e-05
1390   0.0272515    0.034947   0.0460067  5.80037e-06
1400   0.0271824   0.0348785    0.122778  3.44455e-05
1410   0.0265626   0.0342635    0.872351  3.22864e-05
1420   0.0265367   0.0342378     0.96839  4.01255e-05
1430   0.0257601   0.0334674    0.718771  5.56463e-05
1440   0.0254238   0.0331337    0.680066  3.03558e-05
1450   0.0251529   0.0328651    0.987377  4.92622e-05
1460   0.0244385   0.0321563    0.948972  4.38047e-05
1470   0.0242769   0.0319959    0.948953  3.28367e-05
1480   0.0237818   0.0315047     1.08351  4.28997e-05
1490   0.0234189   0.0311447     1.46772  2.96524e-05
1500   0.0231887   0.0309164    0.871656  4.86717e-05
1510   0.0224454    0.030179      1.0258  4.65276e-05
1520   0.0222582   0.0299932    0.698939  2.43309e-05
1530   0.0219588   0.0296962    0.622093  3.89188e-05
1540   0.0214798    0.029221    0.794922  4.34794e-05
1550   0.0210892   0.0288335     1.35232  2.78953e-05
1560   0.0209219   0.0286675     1.25625  6.65123e-06
1570   0.0209562   0.0287015      1.1985  8.92682e-06
1580   0.0207434   0.0284903     1.37133  -6.50063e-08
1590   0.0209575   0.0287028    0.909911  1.57266e-05
1600   0.0204288   0.0281783    0.909911  5.57248e-06
1610    0.020846   0.0285922     0.56382  -2.70084e-09
1620   0.0204289   0.0281784     1.08302  2.70736e-05
1630   0.0203046    0.028055    0.525584  1.58402e-05
1640   0.0201121   0.0278641     0.87115  1.24753e-05
1650   0.0200551   0.0278075      0.8519  2.27213e-05
1660   0.0196577   0.0274132    0.755542  2.61622e-05
1670   0.0195318   0.0272884    0.793984  2.96528e-05
1680   0.0190646   0.0268249    0.928447  4.22259e-05
1690   0.0186873   0.0264506     0.87053  4.46121e-05
1700   0.0181724   0.0259397      1.1206  4.5853e-05
1710   0.0177702   0.0255408    0.832088  3.56889e-05
1720   0.0174586   0.0252316    0.947489  5.98028e-05
1730   0.0165742   0.0243542      1.0628  6.67841e-05
1740   0.0161229   0.0239064     1.02426  3.48651e-05
1750   0.0158769   0.0236624    0.832276  9.70438e-06
1760   0.0159288   0.0237139    0.889385  2.23897e-05
1770   0.0154291   0.0232181      1.1587  2.01099e-05
1780   0.0155266   0.0233149    0.908597  8.67262e-06
1790   0.0152556    0.023046    0.754866  1.09782e-05
1800    0.015307    0.023097     0.50489  6.28689e-07
1810   0.0152431   0.0230336    0.581755  2.93651e-06
1820   0.0152483   0.0230388    0.600835  -1.68355e-06
1830   0.0152767    0.023067    0.831469  2.95066e-06
1840   0.0151893   0.0229802    0.908447  2.8487e-05
1850    0.014707   0.0225017     1.00473  2.73709e-05
1860   0.0146419   0.0224371    0.908465  2.28106e-05
1870   0.0142508   0.0220491     1.10047  1.70203e-05
1880   0.0143015   0.0220994    0.946776  1.24231e-05
1890   0.0140023   0.0218026     1.33105  1.82728e-05
1900    0.013936   0.0217369     1.13861  1.96123e-06
1910   0.0139631   0.0217637    0.927245  6.6543e-06
1920   0.0138029   0.0216048    0.831112  2.54154e-05
1930   0.0134548   0.0212594    0.658226  3.13366e-05
1940   0.0131762   0.0209831    0.696574  2.08414e-05
1950    0.013038   0.0208459    0.792426  2.07559e-06
1960   0.0131347   0.0209419    0.638677  9.16454e-06
1970   0.0128547   0.0206641    0.542431  2.56776e-05
1980   0.0126211   0.0204324    0.600084  1.98397e-05
1990   0.0124579   0.0202704    0.676875  1.7528e-05
2000   0.0122706   0.0200846    0.619277  1.40185e-05
2010   0.0121775   0.0199923    0.811431  -3.72157e-06
2020    0.012345   0.0201584    0.580779  2.21967e-06
2030   0.0121331   0.0199482    0.465415  5.76605e-06
2040   0.0122297    0.020044    0.869029  8.18041e-06
2050   0.0119695   0.0197859    0.330915  2.96247e-05
2060   0.0116372   0.0194562    0.503951  4.28174e-05
2070   0.0111132   0.0189363    0.177203  1.06635e-05
2080   0.0114239   0.0192446    0.273243  2.27024e-05
2090   0.0106591   0.0184859    0.330971  4.18512e-05
2100   0.0105869   0.0184142    0.427142  1.20261e-05
2110   0.0104186   0.0182473    0.234951  6.04833e-06
2120   0.0104659   0.0182942  -0.0727546  1.68957e-05
2130   0.0100807    0.017912   0.0424402  1.93189e-05
2140   0.0100796   0.0179109   -0.188212  1.57777e-05
2150  0.00976512    0.017599   -0.457381  1.57965e-05
2160  0.00976363   0.0175975   -0.534096  9.81544e-06
2170  0.00956881   0.0174042  -0.0536555  1.95072e-05
2180  0.00937348   0.0172104   -0.361117  1.95576e-05
2190  0.00917766   0.0170161   -0.111365  2.44588e-05
2200  0.00888431   0.0167251   -0.361229  3.86978e-06
2210  0.00910026   0.0169394   -0.457475  7.56048e-06
2220   0.0087331   0.0165751   -0.476499  2.70232e-05
2230   0.0085598   0.0164032   -0.438226  1.97909e-05
2240  0.00833728   0.0161824   -0.668878  1.37354e-05
2250  0.00828509   0.0161306   -0.322994  -9.44138e-06
2260  0.00852611   0.0163697   -0.745763  -3.32724e-06
2270  0.00835164   0.0161967   -0.515148  -4.58774e-06
2280  0.00861786   0.0164608    0.253749  -2.11787e-06
2290  0.00839399   0.0162387    0.195927  8.90233e-06
2300  0.00843982   0.0162841    -0.18825  7.71293e-06
2310  0.00823973   0.0160856    -0.43832  1.8803e-05
2320  0.00806376   0.0159111   -0.380723  1.26868e-05
2330    0.007986   0.0158339   -0.092398  2.84626e-06
2340  0.00800683   0.0158546   -0.111572  -4.55901e-06
2350  0.00807718   0.0159244    0.234313  7.81454e-06
2360  0.00785054   0.0156995   -0.226954  1.61584e-06
2370  0.00804486   0.0158923    0.157278  -8.28439e-06
2380  0.00801623   0.0158639   -0.188719  6.5966e-06
2390  0.00791293   0.0157614  -0.0733928  1.03437e-05
2400  0.00780935   0.0156587   -0.188606  6.63206e-06
2410  0.00778029   0.0156298    0.214988  -3.33039e-06
2420  0.00787596   0.0157247    0.214876  -1.58285e-05
2430  0.00809686   0.0159439    0.330127  -1.08557e-05
2440  0.00809308   0.0159401    0.637607  6.64294e-06
2450    0.007964   0.0158121    0.599183  1.41795e-05
2460  0.00780949   0.0156588    0.406898  2.90908e-06
2470  0.00790582   0.0157544    0.233881  2.55773e-05
2480  0.00729794   0.0151513    0.176283  2.8117e-05
2490  0.00734348   0.0151965     0.54153  1.30999e-05
2500  0.00703594   0.0148914     0.38778  3.20574e-05
2510  0.00670233   0.0145604    0.483914  2.32879e-05
2520  0.00657019   0.0144293    0.503144  2.46298e-05
2530  0.00620973   0.0140717    0.579991  2.84851e-05
2540  0.00600048   0.0138641    0.675992  2.47624e-05
2550  0.00571449   0.0135804    0.964355  2.22807e-05
2560  0.00555487    0.013422    0.618358  9.61684e-06
2570  0.00552215   0.0133896     0.61832  7.26501e-07
2580  0.00554034   0.0134076    0.791225  7.11519e-06
2590  0.00537985   0.0132484    0.560554  7.12234e-06
2600  0.00539789   0.0132663     0.44519  -1.33281e-05
2610  0.00564641   0.0135128    0.349113  -5.6573e-06
2620  0.00551104   0.0133785    0.156771  2.3824e-05
2630  0.00516993   0.0130401    -0.15069  1.23065e-05
2640  0.00526491   0.0131343  -0.0354575  -4.36241e-06
2650  0.00525717   0.0131267   -0.112417  -1.8033e-06
2660  0.00530097   0.0131701   -0.150971  7.22914e-06
2670  0.00511259   0.0129832  -0.0930924  -4.39868e-06
2680  0.00538895   0.0132574    0.175908  2.09217e-06
2690  0.00507075   0.0129417    0.175964   5.945e-06
2700  0.00527005   0.0131394    0.348775  -1.08732e-05
2710  0.00528821   0.0131575   -0.170183  8.57636e-06
2720  0.00509852   0.0129693   0.0796621  5.98303e-06
2730  0.00516855   0.0130388  -0.0358329  3.41188e-06
2740  0.00503028   0.0129016   -0.227987  2.16745e-05
2750  0.00473506   0.0126087   -0.227912  3.08696e-05
2760  0.00441289   0.0122891   0.0604316  2.31029e-05
2770    0.004273   0.0121503   -0.112623  1.40078e-05
2780  0.00413273   0.0120111  -0.0741248  4.86202e-06
2790  0.00417576   0.0120538   0.0220835  1.01438e-05
2800  0.00392986   0.0118099   -0.112473  1.93621e-05
2810  0.00378852   0.0116696   -0.285509  3.12813e-05
2820  0.00330423   0.0111892  -0.0354951  3.92611e-05
2830   0.0030033   0.0108906   -0.573834  8.99496e-06
2840  0.00312433   0.0110107   -0.150896  -2.12435e-07
2850  0.00300755   0.0108948   -0.189413  1.83198e-05
2860  0.00275794   0.0106472   -0.189282  2.76499e-05
2870  0.00245455   0.0103462   -0.227762  2.24089e-05
2880  0.00230976   0.0102026    -0.51603  1.84913e-05
2890  0.00208473  0.00997932   -0.612445  1.0543e-05
2900   0.0020989  0.00999339   -0.650849  2.66015e-05
2910  0.00155269   0.0094515   -0.381736  3.59904e-05
2920  0.00137909  0.00927927   -0.208738  1.87234e-05
2930  0.00117823     0.00908  -0.0164149  1.34151e-05
2940  0.00111079  0.00901309    -0.20855  4.06905e-06
2950  0.00109684  0.00899926   -0.112661  1.75218e-05
2960  0.000760353  0.00866543  -0.0934866  1.48579e-05
2970  0.000799688  0.00870445   -0.381962  2.79902e-06
2980  0.000704373  0.00860989   -0.439765  9.54487e-06
2990  0.00060879  0.00851507  -0.0551759  2.98432e-05
3000  0.000107509  0.00801775   -0.228175  3.12532e-05
3010  -1.62742e-05  0.00789495   -0.189901  1.55293e-06
3020  7.64508e-05  0.00798694     0.17542  5.64475e-06
3030  -0.000129169  0.00778294    0.175533  5.63949e-06
3040  -3.6339e-05  0.00787504  0.00245892  2.32223e-07
3050  -0.000133814  0.00777834  0.00242144  1.5214e-05
3060  -0.000340618  0.00757317    0.367536  1.11546e-05
3070  -0.000356905  0.00755701     0.29069  1.66686e-05
3080  -0.000673991  0.00724243    0.348381  3.03859e-05
3090  -0.000964624   0.0069541    0.406035  1.40233e-05
3100  -0.000954457  0.00696419    0.271441  -5.13658e-06
3110  -0.000861892  0.00705602    0.309845  1.13552e-05
3120  -0.00118156  0.00673888    0.232923  2.0997e-05
3130  -0.00128183   0.0066394     0.30992  1.00422e-05
3140  -0.0013824  0.00653962    0.175307  8.69049e-06
3150  -0.00145564  0.00646697    0.405809  1.7016e-05
3160  -0.00172272    0.006202    0.117485  1.56668e-05
3170  -0.00176898  0.00615611   0.0789113  3.24462e-06
3180  -0.00178762  0.00613762    0.136603  1.57585e-05
3190  -0.00208415  0.00584343    0.290389  1.85673e-05
3200  -0.00215896  0.00576921    0.290389  5.2593e-07
3210  -0.00209467    0.005833    0.155871  5.37408e-07
3220  -0.00216971  0.00575855    0.213562  -8.68482e-07
3230  -0.0020773  0.00585023    0.194181  -1.34535e-05
3240  -0.00190064  0.00602549     0.42489  -2.27522e-06
3250  -0.00203179  0.00589537    0.367274  -6.51536e-06
3260  -0.00177033  0.00615477    0.348043  -2.1968e-05
3270  -0.00159243  0.00633126    0.251779  -7.96207e-06
3280  -0.00161109  0.00631275    0.271084  -9.51212e-07
3290  -0.00157341  0.00635013    0.444064  -3.77368e-06
3300  -0.00153562  0.00638762     0.59787  -2.37074e-06
3310  -0.00152599  0.00639717    0.424777  1.31978e-05
3320  -0.00179957  0.00612575    0.425021  7.54304e-06
3330  -0.00167685   0.0062475     0.54031  4.93362e-07
3340  -0.00180944  0.00611597    0.501905  1.89803e-06
3350  -0.00171481  0.00620984    0.271065  -6.62743e-06
3360  -0.00167689  0.00624747    0.347837  3.33693e-06
3370  -0.00178155  0.00614363    0.213224  -3.80907e-06
3380  -0.00160071  0.00632304    0.136434  -1.09556e-05
3390  -0.00156244  0.00636101   0.0401877  -9.56576e-06
3400  -0.0014094  0.00651285   -0.075176  -9.72708e-07
3410  -0.00154299  0.00638031    0.136283  -9.98052e-07
3420  -0.00138943  0.00653265   -0.017466  1.19801e-05
3430  -0.00178259   0.0061426   0.0594932  1.48597e-05
3440  -0.00168663  0.00623781   -0.075082  -2.26096e-05
3450  -0.0013304  0.00659122   0.0594556  -1.83193e-05
3460  -0.00132024  0.00660129    0.117241  -9.70995e-06
3470  -0.0011362  0.00678388   0.0787048  -1.11774e-05
3480  -0.00109669  0.00682307    0.367011  3.30895e-06
3490  -0.00120238  0.00671823  -0.0173534  1.64068e-05
3500  -0.00142483  0.00649753  -0.0173721  2.08215e-05
3510  -0.00161881  0.00630509  -0.0558141  2.08877e-05
3520  -0.00184258  0.00608309    0.155589  4.86631e-06
3530  -0.00171613  0.00620854    0.309413  5.15371e-07
3540  -0.00185289  0.00607286   -0.113581  1.36967e-05
3550  -0.00199007  0.00593677    0.386166  6.39415e-06
3560  -0.00198077  0.00594599    0.117091  -8.28685e-06
3570  -0.00182433  0.00610119    0.213111  7.90798e-06
3580  -0.00213893  0.00578908    0.117053  1.52749e-05
3590  -0.00212983  0.00579811    0.174725  -8.30262e-06
3600  -0.00197288  0.00595382   0.0977663  1.53702e-05
3610  -0.00243723  0.00549314    0.193956  4.99049e-06
3620  -0.00207269   0.0058548    0.136096  -1.72053e-05
3630  -0.00209313  0.00583452    0.116997  -3.90293e-06
3640  -0.00199463  0.00593224   0.0977474  -1.13548e-05
3650  -0.00186603  0.00605982  -0.0945377  -2.33251e-05
3660  -0.00152813  0.00639505   0.0975973  -2.03934e-05
3670  -0.00145816  0.00646446   0.0591365  -5.51043e-06
3680  -0.00141792  0.00650439   0.0975035  1.0961e-05
3690  -0.00167738  0.00624698    0.309094  1.96245e-06
