Time   C(t)   
ps   
0           1           1  7.53381e-10   0.0178688
10    0.821575    0.868359   -0.255372  0.00997631
20    0.800474    0.852791    -1.51021  0.00208386
30    0.779897     0.83761   -0.303177  0.00166832
40    0.767107    0.828174    -0.44613  0.00136365
50    0.752624    0.817489   -0.730626  0.00127491
60    0.741609    0.809362   -0.896488  0.00104106
70    0.731803    0.802127   -0.848983   0.0010843
80    0.719923    0.793362    -1.18036  0.00106909
90    0.710421    0.786352    -1.22821  0.00094161
100    0.701091    0.779468   -0.944686  0.000922915
110    0.691963    0.772733     -1.2523  0.000840825
120    0.684274    0.767061   -0.968565  0.000788665
130     0.67619    0.761096    -1.58361  0.000717157
140    0.669931    0.756478    -2.10438  0.000726673
150    0.661656    0.750373   -0.377149  0.000688282
160    0.656166    0.746322   -0.567098  0.000677085
170    0.648115    0.740382   0.0243416  0.000759637
180    0.640973    0.735113   -0.922123  0.000636747
190     0.63538    0.730987    0.260086  0.000628528
200    0.628402    0.725839    0.804482  0.000639325
210    0.622593    0.721553  -0.0244107  0.000618318
220    0.616036    0.716715   -0.190365  0.000577828
230    0.611037    0.713027   -0.356342  0.000553414
240    0.604968    0.708549    -1.18431  0.000596288
250    0.599111    0.704228   -0.592826  0.000513908
260    0.594689    0.700966    -1.20838  0.000532731
270    0.588456    0.696367    -1.23207  0.000546655
280    0.583756      0.6929    -2.13207  0.000530115
290    0.577854    0.688545    -1.51707  0.000606972
300    0.571617    0.683943    -1.80076  0.000461197
310     0.56863    0.681739   -0.902195   0.0004219
320    0.563179    0.677718    -1.16233  0.000472808
330    0.559174    0.674763    -1.35241  0.000509524
340    0.552988    0.670199    -1.23387  0.000507218
350     0.54903    0.667278   -0.831712  0.000407687
360    0.544835    0.664183     -1.3762  0.00045732
370    0.539883     0.66053    -2.01533  0.000531432
380    0.534206    0.656342    -1.42359  0.00041844
390    0.531514    0.654356   -0.903928  0.000434202
400    0.525522    0.649935    -1.16364  0.000469217
410     0.52213    0.647432   -0.738066  0.000305235
420    0.519417    0.645431   -0.785894  0.000364807
430    0.514834    0.642049    -1.77977  0.00047029
440    0.510012    0.638491   -0.525901  0.000494212
450     0.50495    0.634757   -0.691278  0.000437802
460    0.501256    0.632031    -1.89848  0.000420737
470    0.496535    0.628548    -1.40142  0.000403461
480    0.493186    0.626078    -1.09415  0.000419182
490    0.488151    0.622363    -1.16533  0.00041998
500    0.484787    0.619881    -1.73287  0.000351658
510    0.481118    0.617174   -0.431724  0.000403589
520    0.476715    0.613925   -0.502553  0.000404409
530     0.47303    0.611207   -0.432024  0.000402005
540    0.468675    0.607993     0.18341  0.000291798
550    0.467194    0.606901    0.183133  0.000309141
560    0.462492    0.603432    -1.63848  0.000342813
570    0.460338    0.601842    -1.47341  0.000342011
580    0.455652    0.598385    -1.80483  0.00035762
590    0.453185    0.596565    -2.20717  0.000291863
600    0.449814    0.594078    -1.99469  0.000325769
610     0.44667    0.591758    -1.94723  0.000324824
620    0.443318    0.589285     -1.5216  0.000328857
630    0.440093    0.586906    -1.56892  0.000331216
640    0.436694    0.584398    -2.06653  0.000306812
650    0.433957    0.582379    -1.85356  0.000287382
660    0.430946    0.580158    -1.85372  0.000266129
670    0.428634    0.578452    -1.99598  0.000293641
680    0.425073    0.575825    -1.07305  0.000300963
690    0.422615    0.574011    -1.35694  0.00027806
700    0.419512    0.571722    -2.01947  0.000307289
710    0.416469    0.569476    -2.06734  0.000345111
720     0.41261    0.566629    -1.99598  0.000300173
730    0.410465    0.565047     -1.8312  0.000290772
740    0.406794    0.562339    -2.25643   0.0003675
750    0.403115    0.559624    -2.72952  0.000320837
760    0.400378    0.557604     -2.2332  0.000291048
770    0.397294     0.55533    -2.61162  0.000272964
780    0.394918    0.553577    -2.16242  0.000273593
790    0.391823    0.551293    -2.18628  0.000308198
800    0.388754    0.549029    -1.85518  0.000261183
810    0.386599    0.547439     -2.3762  0.000323212
820     0.38229     0.54426    -1.85501  0.000347671
830    0.379646    0.542309    -2.25805  0.000187857
840    0.378533    0.541488    -2.14018  0.000229411
850    0.375057    0.538923    -1.99808  0.000281151
860     0.37291    0.537339    -1.57197  0.000281893
870    0.369419    0.534764    -1.33577  0.000373414
880    0.365442    0.531829    -1.80846  0.000372478
890     0.36197    0.529268    -1.61927  0.000208171
900    0.361278    0.528757    -1.45394  0.000189795
910    0.358174    0.526467   -0.602322  0.000271144
920    0.355855    0.524756    -1.52509  0.000226918
930    0.353636    0.523119    -1.26505  0.000248133
940    0.350893    0.521095    -1.97485  0.000203654
950    0.349563    0.520114    -2.14117  0.000263102
960    0.345631    0.517213    -1.28914  0.000263555
970    0.344291    0.516225    -1.50246  0.000253837
980    0.340554    0.513467    -2.16466  0.000287299
990    0.338546    0.511985    -1.57322  0.000211498
1000    0.336324    0.510346    -1.43147  0.000156212
1010    0.335421     0.50968    -1.52632  0.000174066
1020    0.332843    0.507778    -1.40791  0.000158644
1030    0.332248    0.507339    -1.76382  0.000188822
1040    0.329066    0.504992    -1.90527  0.00020134
1050    0.328222    0.504368    -2.04704  0.000131854
1060    0.326429    0.503046    -1.92933  0.000214528
1070    0.323931    0.501203    -1.59782  0.000230768
1080    0.321814    0.499641    -1.76426  0.000206715
1090    0.319797    0.498153    -1.83527  0.000207186
1100     0.31767    0.496584    -1.26734  0.000242801
1110    0.314941     0.49457    -1.78763  0.000241597
1120    0.312838    0.493019    -1.74042  0.000192823
1130    0.311084    0.491725    -1.83546  0.00015963
1140    0.309646    0.490663    -1.90679  0.000140528
1150    0.308274    0.489651    -1.78862  0.000259553
1160    0.304454    0.486833    -2.00139  0.000240478
1170    0.303464    0.486103    -2.21443  0.000195032
1180    0.300554    0.483955    -2.16706  0.000191827
1190    0.299628    0.483272    -2.40438  0.000195917
1200    0.296635    0.481064    -1.41004  0.000199823
1210    0.295631    0.480323    -1.55262  0.000157601
1220    0.293483    0.478739    -1.45803  0.000191802
1230    0.291795    0.477493    -2.28607  0.000169021
1240    0.290103    0.476245    -1.76587  0.000172994
1250    0.288335    0.474941    -1.71816  0.000160845
1260    0.286886    0.473872    -2.04979  0.000177366
1270    0.284788    0.472323    -1.62378  0.000202887
1280    0.282828    0.470878     -2.7125  0.000179966
1290    0.281189    0.469668    -3.35147  0.000133604
1300    0.280156    0.468906    -2.45271  0.000177222
1310    0.277644    0.467053    -2.64167  0.000213633
1320    0.275884    0.465754    -2.05037  0.000161777
1330    0.274409    0.464666    -2.31082  0.000232667
1340     0.27123    0.462321     -2.8549  0.000271127
1350    0.268986    0.460665    -2.33461  0.000253689
1360    0.266157    0.458577    -2.31066  0.000132681
1370    0.266332    0.458707    -1.95642  0.000151339
1380     0.26313    0.456344    -2.02741  0.000213316
1390    0.262066     0.45556    -2.21651  0.000186622
1400    0.259397    0.453591     -2.0745  0.000236182
1410    0.257342    0.452074    -1.50664  0.000134566
1420    0.256706    0.451605    -1.29445  0.00010573
1430    0.255228    0.450514    -0.89241  0.000158967
1440    0.253527    0.449259   -0.277207  0.000179499
1450    0.251638    0.447866   -0.939868  0.000134054
1460    0.250846    0.447281    -1.67359  0.000139929
1470    0.248839    0.445801    -1.88624  0.000189836
1480    0.247049     0.44448   -0.703408  0.000173722
1490    0.245365    0.443238   -0.822065   0.0001944
1500    0.243161    0.441611   -0.869547  0.000181919
1510    0.241727    0.440553    -1.01155  0.000130673
1520    0.240547    0.439683   -0.325381  0.000106958
1530    0.239587    0.438975   -0.845968  8.68902e-05
1540     0.23881    0.438401    -1.29614  0.000144552
1550    0.236696    0.436842    -1.34309  0.000180052
1560    0.235209    0.435744   -0.278431  0.00022325
1570    0.232231    0.433548   -0.870009  0.000188359
1580    0.231441    0.432965   -0.278986  0.000181484
1590    0.228602     0.43087   -0.420552   0.0002489
1600    0.226463    0.429292    -1.29623  0.000204737
1610    0.224507    0.427849   -0.728442  0.000218322
1620    0.222097    0.426071   -0.349815  0.000192627
1630    0.220654    0.425006   -0.137303  0.000189405
1640    0.218309    0.423276   0.0995958  0.000148543
1650    0.217684    0.422814   -0.184854  0.000143359
1660    0.215442     0.42116   -0.326698  0.000235719
1670    0.212969    0.419336   -0.161368  0.000326616
1680    0.208909    0.416341   -0.137095  0.000255708
1690    0.207855    0.415563   -0.232151  0.000167832
1700    0.205553    0.413865  -0.0667051  0.000205949
1710    0.203736    0.412524    0.311715  0.000238615
1720     0.20078    0.410344    0.856342  0.000252366
1730    0.198689      0.4088   0.0750923  0.000205658
1740    0.196667    0.407309    0.382451  0.000274488
1750    0.193199     0.40475   0.0985562  0.000320642
1760    0.190254    0.402578    0.240931  0.000226342
1770    0.188672     0.40141    0.737292  0.000167928
1780    0.186896      0.4001     1.32862  0.000265597
1790     0.18336    0.397491    0.619097  0.000191657
1800    0.183063    0.397272    0.476768  0.000106283
1810    0.181234    0.395923    0.760178   0.0002194
1820    0.178675    0.394034    0.713297  0.000246724
1830      0.1763    0.392282    0.618796  0.000172505
1840    0.175225    0.391489   0.0267793  0.000176825
1850    0.172763    0.389673    0.476514  0.00019066
1860    0.171411    0.388675    0.547389  0.000131498
1870    0.170134    0.387733    0.334624  0.000149181
1880    0.168428    0.386474    0.381527  0.000224809
1890    0.165637    0.384415   -0.115157  0.000204013
1900    0.164348    0.383464   0.0503353  0.000185275
1910    0.161932    0.381681    0.405499  0.000172119
1920    0.160905    0.380924    0.570899  9.30779e-05
1930     0.16007    0.380308    0.641567  0.000104945
1940    0.158806    0.379375    0.996338  0.000116852
1950    0.157733    0.378584    0.948648  9.38155e-05
1960     0.15693    0.377991     1.20869  0.000119401
1970    0.155345    0.376822     1.06684  0.000174309
1980    0.153444    0.375419     1.13788  0.000125866
1990    0.152828    0.374965       0.759  4.99085e-05
2000    0.152446    0.374683    0.427854  0.000140204
2010    0.150024    0.372896    0.995991  0.000156147
2020    0.149323    0.372379     0.38028  0.000125194
2030     0.14752    0.371049     1.18467  0.000135278
2040    0.146617    0.370382     1.42088  8.84019e-05
2050    0.145752    0.369744     1.49201  0.000141872
2060     0.14378    0.368289      1.0664  0.000157959
2070    0.142593    0.367413     1.16081  8.12806e-05
2080    0.142154     0.36709     1.37332  0.000127073
2090    0.140051    0.365538    0.592537  0.000192718
2100      0.1383    0.364246    0.616093  9.79617e-05
2110    0.138092    0.364093    0.876016  6.25357e-05
2120    0.137049    0.363323    0.875924  0.000178053
2130    0.134531    0.361465    0.639972  0.000128595
2140    0.134477    0.361426    0.804817  0.00010314
2150    0.132468    0.359943    0.781331  0.000181177
2160    0.130854    0.358752     1.34938  0.000103676
2170    0.130395    0.358414    0.757752  7.79808e-05
2180    0.129294    0.357602     1.16028  0.000110231
2190     0.12819    0.356787    0.615793  0.000176764
2200    0.125759    0.354993     1.44378  0.000155002
2210     0.12509      0.3545     1.13643  4.88404e-05
2220    0.124782    0.354273        1.42  0.000109445
2230    0.122901    0.352885     1.46753  0.000113683
2240    0.122508    0.352595     1.75124  1.71028e-05
2250    0.122559    0.352633     1.08876  8.99959e-05
2260    0.120708    0.351267      1.0413  0.000102233
2270    0.120514    0.351124     1.77447  0.000124921
2280     0.11821    0.349424     1.18291  0.000222614
2290    0.116062    0.347839     1.91645  0.000208952
2300    0.114031    0.346341     1.56189  0.000115832
2310    0.113745     0.34613     1.22989  2.65531e-05
2320      0.1135    0.345949      2.0582  7.97156e-05
2330    0.112151    0.344954     1.18257  0.000114571
2340    0.111208    0.344258     1.32402  0.000133329
2350    0.109485    0.342986     1.75033  8.85703e-05
2360    0.109437    0.342951     1.72618  0.000103249
2370     0.10742    0.341463     2.27039  0.000195856
2380     0.10552    0.340061     2.60188  0.000105851
2390    0.105303    0.339901     3.09857  0.000130953
2400    0.102901    0.338129     2.24683  0.00021367
2410    0.101029    0.336748     2.08132  9.44778e-05
2420    0.101011    0.336735     2.05698  7.41877e-05
2430   0.0995454    0.335653     2.60151  0.000181959
2440    0.097372     0.33405     2.57812  0.000145047
2450   0.0966445    0.333513     2.19956  9.36292e-05
2460   0.0954994    0.332668     1.79735  8.96927e-05
2470   0.0948506     0.33219     1.93876   1.291e-05
2480   0.0952412    0.332478     1.89142  6.72381e-05
2490   0.0935059    0.331197     2.27011  0.000115299
2500   0.0929352    0.330776     1.77283  8.22179e-05
2510   0.0918615    0.329984     2.48258  0.000141022
2520   0.0901148    0.328696     2.64821  0.000151839
2530   0.0888247    0.327744     2.36441  8.09111e-05
2540   0.0884966    0.327502     2.22249  2.65572e-05
2550   0.0882936    0.327352     2.17473  4.55707e-05
2560   0.0875852    0.326829     1.53588  4.98623e-05
2570   0.0872963    0.326616     1.93777  7.32563e-05
2580     0.08612    0.325748     1.77213  9.03048e-05
2590   0.0854902    0.325284     1.72484  6.51676e-05
2600   0.0848167    0.324787     1.36995  9.50128e-05
2610     0.08359    0.323882     2.03236  0.000105851
2620   0.0826997    0.323225     2.48168  9.12767e-05
2630   0.0817645    0.322535     2.10333  8.08932e-05
2640   0.0810818    0.322031     2.64745  4.06545e-05
2650   0.0809514    0.321935     1.91361  2.79929e-05
2660   0.0805219    0.321618     2.52872  0.000134861
2670   0.0782541    0.319945     2.10326  0.000118009
2680   0.0781618    0.319877     2.12626  0.00010991
2690   0.0760559    0.318323     1.84248  0.000127215
2700   0.0756175       0.318      1.7949  -7.63461e-06
2710   0.0762086    0.318436     1.77114  1.8226e-05
2720   0.0752529    0.317731     1.81869  7.63204e-05
2730   0.0746822     0.31731     1.55821  0.000141268
2740   0.0724276    0.315646     1.17982  8.9705e-05
2750   0.0728881    0.315986     1.79428  8.14911e-05
2760   0.0707978    0.314444     2.03125  0.00011619
2770   0.0705643    0.314271      2.0312  7.10912e-05
2780   0.0693759    0.313395     1.84151  0.00011032
2790   0.0683579    0.312644     2.22039  0.000158488
2800   0.0662062    0.311056     2.41011  5.64933e-05
2810   0.0672281     0.31181     2.14931  6.77671e-05
2820   0.0648508    0.310056     1.93626  0.000120132
2830   0.0648254    0.310037     3.02478  1.34874e-05
2840   0.0645811    0.309857     2.12522  8.13879e-05
2850   0.0631977    0.308836     3.07185  8.37147e-05
2860   0.0629068    0.308622     2.78788  4.45062e-05
2870   0.0623075     0.30818     3.14265  1.16296e-05
2880   0.0626742     0.30845     2.73975  8.66028e-05
2890   0.0605755    0.306902      2.2672  0.000130774
2900   0.0600587     0.30652     1.88853  6.72137e-05
2910   0.0592312     0.30591     2.03035  0.000118256
2920   0.0576936    0.304776     2.50348  7.64618e-05
2930    0.057702    0.304782     2.59802  8.02632e-06
2940   0.0575331    0.304657     2.47957  2.80214e-05
2950   0.0571416    0.304368      2.9052  5.03289e-05
2960   0.0565265    0.303914     2.29041  0.000126187
2970   0.0546178    0.302506     2.83451  0.000166609
2980   0.0531943    0.301456     3.11824  9.78727e-05
2990   0.0526604    0.301062      2.6686  0.000104924
3000   0.0510959    0.299908     2.43205  0.00013876
3010   0.0498852    0.299015     2.57408  9.06847e-06
3020   0.0509145    0.299774     2.73931  -1.3217e-05
3030   0.0501495     0.29921     2.47944  1.13629e-05
3040   0.0506872    0.299606     2.78654  5.20438e-05
3050   0.0491086    0.298442     2.57382  7.46056e-05
3060   0.0491951    0.298505     2.47895  8.39831e-05
3070    0.047429    0.297202     2.21857  0.000151972
3080   0.0461557    0.296263     2.40819  0.000100327
3090   0.0454224    0.295722     2.33688  4.16523e-05
3100   0.0453226    0.295648     2.12393  3.95417e-05
3110   0.0446316    0.295138     2.50253  6.69349e-05
3120   0.0439839    0.294661     2.43165  3.75059e-05
3130   0.0438815    0.294585     2.33695  9.24276e-05
3140   0.0421354    0.293297     2.52634  0.000117722
3150    0.041527    0.292848     2.00559  7.2372e-05
3160   0.0406879    0.292229     2.40771  6.34003e-05
3170    0.040259    0.291912     1.86368  6.36024e-05
3180   0.0394159     0.29129         2.1  0.000169528
3190   0.0368685    0.289411     2.28986  0.000123862
3200   0.0369386    0.289463     2.24207  6.80648e-06
3210   0.0367323     0.28931     2.28916  3.68152e-05
3220   0.0362023    0.288919      1.9816  4.84688e-05
3230    0.035763    0.288595     2.40738  0.000113489
3240   0.0339326    0.287245     1.83978  0.000155468
3250   0.0326536    0.286301     2.12372  6.53636e-05
3260   0.0326253     0.28628     2.12332  8.19413e-05
3270   0.0310148    0.285092      2.1709  0.000107697
3280   0.0304714    0.284691     2.35997  6.60967e-05
3290   0.0296928    0.284117     2.17034  7.32869e-05
3300   0.0290056     0.28361     1.95742  0.000117985
3310   0.0273331    0.282376      2.0994  9.2474e-05
3320   0.0271561    0.282245     2.05187  3.18224e-05
3330   0.0266967    0.281906     2.05162  4.1311e-05
3340   0.0263299    0.281636      2.3118  0.000109718
3350   0.0245023    0.280287     2.09896  0.000109938
3360   0.0241312    0.280013     2.09877  8.91294e-05
3370   0.0227197    0.278972     2.16974  0.000124801
3380   0.0216351    0.278172     2.54828  0.000120461
3390   0.0203105    0.277195     1.95661  0.000113689
3400   0.0193613    0.276494     1.90936  0.000125957
3410   0.0177914    0.275336     2.66666  9.77253e-05
3420   0.0174068    0.275052     2.07497  5.04481e-05
3430   0.0167824    0.274592     2.24034  9.35587e-05
3440   0.0155357    0.273672     2.50096  6.5089e-05
3450   0.0154806    0.273631     1.93264  4.86324e-05
3460    0.014563    0.272954      2.6898  0.000123058
3470   0.0130195    0.271815     2.07485  8.49506e-05
3480    0.012864    0.271701     2.97339  9.01272e-05
3490   0.0112169    0.270485     2.54775  0.000150516
3500  0.00985368     0.26948     2.24032  0.00015824
3510  0.00805215    0.268151     2.16956  9.34516e-05
3520  0.00798465    0.268101     2.00363  9.17348e-06
3530  0.00786868    0.268015     1.93257  7.22165e-05
3540  0.00654032    0.267035     2.52414  6.02013e-05
3550  0.00666465    0.267127     2.33443  9.21206e-05
3560  0.00469791    0.265676      2.4293  0.000162859
3570  0.00340748    0.264724     2.26355  4.6342e-05
3580  0.00377107    0.264992      2.1924  6.12919e-05
3590  0.00218164    0.263819     2.07402  0.000137166
3600  0.00102775    0.262968     2.57105  7.88047e-05
3610  0.000605547    0.262656     2.00321  5.21184e-05
3620  -1.46226e-05    0.262199     2.05009  6.70298e-05
3630  -0.00073505    0.261667     1.88448  0.00012139
3640  -0.00244242    0.260408     1.83765  7.2372e-05
3650  -0.00218249    0.260599     2.07381  2.83021e-05
3660  -0.00300847     0.25999     2.28683  0.000129723
3670  -0.00477696    0.258685     2.61784  8.54697e-05
3680  -0.00471786    0.258729      2.1445  6.35519e-05
3690   -0.006048    0.257748     2.54675  8.35268e-05
3700  -0.0063884    0.257496     2.52294  5.6487e-05
3710  -0.00717774    0.256914     3.06697  0.000116456
