Time   C(t)   
ps   
0           1           1  8.3918e-10   0.0495127
10    0.514841     0.80437     1.31842   0.0256483
20    0.487035    0.793157   -0.726644  0.00178383
30    0.479165    0.789984    0.357192  0.00114336
40    0.464168    0.783937    -1.27187  0.00137407
50    0.451683    0.778903   0.0241718  0.00105127
60    0.443142    0.775459    -1.60534  0.000798884
70    0.435706     0.77246    -1.06236  0.00071386
80    0.428865    0.769702    -1.18836  0.000669387
90    0.422318    0.767062    -2.10709  0.000476559
100    0.419334    0.765858    0.146949  0.000728375
110     0.40775    0.761188    -2.02436  0.000560445
120    0.408125    0.761339   -0.690886  0.000239258
130    0.402965    0.759258    -2.52717  0.000182977
140    0.404465    0.759863   -0.649906  0.000255629
150    0.397853    0.757196   -0.816927  0.000687577
160    0.390714    0.754318    -1.40027  0.000390485
170    0.390043    0.754047    -1.31876  0.00012379
180    0.388238     0.75332    -2.19786  0.000500387
190    0.380035    0.750012    -2.53109  0.000800443
200    0.372229    0.746864   -0.817252  0.000471415
210    0.370607     0.74621    -1.40317  0.000431304
220    0.363603    0.743386    -2.15407  0.000426729
230    0.362072    0.742769    -2.11403  7.54684e-05
240    0.362094    0.742777    -2.90913  0.000433713
250    0.353398    0.739271    -1.48741  0.000678213
260    0.348529    0.737308    -2.28174  0.000248231
270    0.348433    0.737269    -1.23807  0.000176191
280    0.345006    0.735887    -1.32231  0.000374387
290    0.340946     0.73425    -1.61611  0.000667134
300    0.331663    0.730507    -2.49141  0.000501206
310    0.330922    0.730208    -3.11933  0.000351106
320    0.324641    0.727675    -2.99276  0.000288762
330    0.325146    0.727879    -1.99198  0.000253108
340    0.319579    0.725634    -1.36505  0.000368592
350    0.317774    0.724907    -1.44933  0.000128189
360    0.317015      0.7246   -0.616229  0.000249349
370    0.312787    0.722896   0.0940153  0.000323263
380     0.31055    0.721993   -0.700228  0.000476699
390    0.303254    0.719051   -0.574678  0.000435258
400    0.301845    0.718483    0.301607  0.000383759
410    0.295578    0.715957   -0.574024  0.000379035
420    0.294264    0.715426    -1.95394  0.000226782
430    0.291043    0.714128    -2.49668  -8.50245e-05
440    0.295964    0.716112     0.46618  0.000264771
450    0.285747    0.711992    0.383853  0.000519079
460    0.285583    0.711926    -1.28765  0.000154485
470    0.282658    0.710746    0.341159  0.000579706
480    0.273989    0.707251    -1.74525  0.000484873
490     0.27296    0.706836    -2.95851  8.69542e-05
500     0.27225     0.70655   -0.285738  0.000284381
510    0.267272    0.704543    -0.66243  0.000791721
520    0.256415    0.700165    -1.28696  0.000280255
530    0.261667    0.702283    -1.91635  -0.000381422
540    0.264044    0.703241    -2.16892  0.000575826
550    0.250151    0.697639    -2.66635  0.000763762
560    0.248768    0.697081    -3.29528  0.000304676
570    0.244057    0.695182   -0.663492  0.000262185
580    0.243525    0.694967    -1.49965  0.000112475
590    0.241808    0.694275    -2.29447  0.000457054
600    0.234384    0.691281    -2.62818  0.000446972
610    0.232868     0.69067    -2.79475  -8.02875e-05
620    0.235989    0.691928    -3.71557  0.000270685
630    0.227455    0.688487    -2.75373  0.000270662
640    0.230576    0.689746    -2.88083  0.000114936
650    0.225156     0.68756    -4.13316  0.000174322
660     0.22709     0.68834    -3.88487  0.000202207
670    0.221112    0.685929    -3.88422  0.000500719
680    0.217075    0.684302    -4.59422  0.000219377
690    0.216724     0.68416    -2.92495  0.000230914
700    0.212457     0.68244    -2.42312  0.00023121
710      0.2121    0.682296    -1.67137  0.00030826
720    0.206292    0.679954    -3.42561    0.000385
730      0.2044    0.679191    -4.01075  0.000298637
740    0.200319    0.677545    -1.33655  8.04059e-05
750    0.202792    0.678542    -4.63842  0.000152098
760    0.197277    0.676319    -3.67773  0.000382221
770    0.195148     0.67546    -2.67438  0.000136333
780     0.19455    0.675219    -3.46871  3.77975e-05
790    0.194392    0.675155    -2.88459  -3.9091e-05
800    0.195332    0.675534    -2.42634  0.00019764
810    0.190439    0.673561    -3.01022  0.000120612
820     0.19292    0.674562    -1.25728  -4.42497e-05
830    0.191324    0.673918    -2.30259  8.24608e-05
840    0.191271    0.673897    -2.05246  0.000287278
850    0.185578    0.671601   -0.798548  0.000398304
860    0.183305    0.670684  -0.0872836  0.00022761
870    0.181026    0.669766    -1.80083  0.000161491
880    0.180075    0.669382   -0.964752  6.75529e-05
890    0.179675    0.669221    -2.09291  -7.12261e-05
900    0.181499    0.669957    -2.47005  9.56461e-05
910    0.177762     0.66845    -2.09344  0.000207011
920    0.177359    0.668287     -2.0112  0.000151876
930    0.174725    0.667225    -2.01091  0.000207921
940    0.173201     0.66661    -1.46806  0.000314639
950    0.168432    0.664687    -1.34144  0.000337536
960     0.16645    0.663888      -1.091  -4.80779e-05
970    0.169393    0.665075   -0.717403  -0.000132061
980    0.169091    0.664953    0.201167  -6.51881e-05
990    0.170697    0.665601    0.116677  0.000378851
1000    0.161514    0.661898   -0.340343  0.00058168
1010    0.159063     0.66091    -1.05087  -8.15988e-06
1020    0.161677    0.661964    -2.47222  4.28528e-05
1030    0.158206    0.660564   -0.508588  0.000324927
1040    0.155179    0.659343    0.201942  -2.17333e-06
1050     0.15825    0.660582  -0.0514439  -0.000335687
1060    0.161893     0.66205    0.155944  0.000258423
1070    0.153081    0.658498    -1.67981  0.000547496
1080    0.150943    0.657635    -1.55381  7.22021e-05
1090    0.151637    0.657915    -1.34573  0.000123709
1100    0.148468    0.656637  -0.0918937  6.11298e-05
1110    0.150415    0.657422    -1.26275  -0.000132128
1120    0.151111    0.657703    -1.84809  0.00023254
1130    0.145764    0.655547   -0.635769   0.0003469
1140    0.144173    0.654905    -1.26295  -6.49616e-06
1150    0.145894    0.655599    -3.43589  2.22616e-05
1160    0.143728    0.654726    -2.47438  -0.000184167
1170    0.149577    0.657085    -1.26528  1.0924e-05
1180    0.143509    0.654638    -1.89111  0.000268667
1190    0.144204    0.654918     -1.7665  -0.000293708
1200    0.149383    0.657006    -1.47658  3.96669e-05
1210    0.143411    0.654598   -0.513362  0.000315696
1220     0.14307     0.65446   -0.429892  0.000235999
1230    0.138691    0.652695   -0.429892  0.00017274
1240    0.139615    0.653067  -0.0119333  3.46929e-05
1250    0.137997    0.652415    -1.68271  -0.000185305
1260    0.143321    0.654562    -1.39177  -0.000225888
1270    0.142514    0.654237    -1.64279  8.07159e-05
1280    0.141707    0.653911   -0.724054  0.000371275
1290    0.135089    0.651242   -0.054586  0.000115934
1300    0.139388    0.652976    -1.89458  -5.77897e-05
1310    0.136245    0.651709    -1.43397  0.000495353
1320    0.129481    0.648981    -1.60038  0.000105313
1330    0.134139    0.650859    -2.31213  -8.07308e-05
1340    0.131095    0.649632    -1.76785  -7.54833e-05
1350    0.135648    0.651468    -1.60307  4.77307e-05
1360    0.130141    0.649247    -1.47577  0.000228977
1370    0.131069    0.649621     -2.1443  -1.07244e-05
1380    0.130355    0.649334   -0.390707  0.000112527
1390    0.128818    0.648714    -1.89413  -3.43159e-05
1400    0.131042     0.64961    -2.02017  0.000277957
1410    0.123259    0.646472    -1.64324  9.52542e-05
1420    0.129137    0.648842    -1.60319  -0.000151668
1430    0.126292    0.647695    -1.85344  -0.000205726
1440    0.133251    0.650501     -2.0225  -9.31852e-05
1450    0.128156    0.648447    -3.44025  0.000338297
1460    0.126485    0.647773    -3.64989  9.61192e-05
1470    0.126234    0.647672     -1.0594  7.86245e-05
1480    0.124913    0.647139    -1.05997  -0.000242237
1490    0.131078    0.649625    -1.10356  -0.000361408
1500    0.132141    0.650054    -1.39634  3.07016e-05
1510    0.130464    0.649378    -1.31266  0.000340825
1520    0.125324    0.647305   0.0675384  0.00030557
1530    0.124353    0.646913    -2.56442  0.000180981
1540    0.121705    0.645846     -1.8125  -4.61861e-05
1550    0.125277    0.647286    -1.68858  -0.000147811
1560    0.124661    0.647038    -2.81609  0.000133643
1570    0.122604    0.646208    -2.98323  -7.6437e-05
1580     0.12619    0.647654    -2.52482  -0.000154478
1590    0.125693    0.647454    -4.28005  -2.25715e-05
1600    0.126641    0.647836    -3.19409  -0.000269776
1610    0.131089     0.64963    -2.35931  -7.70502e-05
1620    0.128182    0.648457    -1.98364  0.00010371
1630    0.129015    0.648793    -2.23454  0.000243338
1640    0.123315    0.646495    -2.31744  0.000170774
1650    0.125599    0.647416    -2.35956  -0.000210441
1660    0.127524    0.648192    -2.52768  -0.000144175
1670    0.128483    0.648579    -2.48629  0.000232407
1680    0.122876    0.646318    -1.81699  0.000165623
1690     0.12517    0.647243     -3.2376  2.62897e-05
1700     0.12235    0.646106     -1.7327  0.000221328
1710    0.120744    0.645458    -2.44348  0.000203597
1720    0.118278    0.644464    -2.65217  0.000100073
1730    0.118742    0.644651    -3.02846  -0.000181232
1740    0.121903    0.645925    -3.11302  -0.00012022
1750    0.121147    0.645621    -3.11282  8.18931e-06
1760    0.121739    0.645859    -2.44486  -8.39017e-05
1770    0.122825    0.646297    -3.65764  4.5136e-05
1780    0.120836    0.645495    -4.11605  2.65852e-05
1790    0.122293    0.646083    -4.65955  -0.000115017
1800    0.123137    0.646423    -4.36829  0.000199666
1810      0.1183    0.644473    -3.82413  0.000280197
1820    0.117533    0.644163    -4.65972  -1.60459e-05
1830    0.118621    0.644602    -3.82458  6.46111e-05
1840    0.116241    0.643642    -3.40727  0.000194876
1850    0.114723     0.64303    -2.82196  -0.000196073
1860    0.120162    0.645223     -3.8687  0.00015229
1870    0.111677    0.641802    -3.53139  0.00024526
1880    0.115257    0.643246    -4.28559  -0.000289813
1890    0.117474    0.644139    -3.61784  -0.00018447
1900    0.118946    0.644733    -3.66066  0.000359043
1910    0.110293    0.641244    -3.65768  0.000171521
1920    0.115516     0.64335    -2.57298  -8.98726e-06
1930    0.110472    0.641316    -3.70057  0.000435931
1940    0.106797    0.639834     -3.7416  8.52097e-05
1950    0.108768    0.640629    -3.61784  -0.000184765
1960    0.110492    0.641324    -2.94935  -0.000178949
1970    0.112347    0.642072    -3.95261  6.65922e-05
1980    0.109161    0.640787    -5.24714  0.000186451
1990    0.108618    0.640569    -5.28861  6.06276e-05
2000    0.107948    0.640298    -5.03817  0.000136746
2010    0.105883    0.639466    -5.53963  8.62814e-05
2020    0.106222    0.639603    -6.75077  6.12486e-05
2030    0.104658    0.638972     -6.5838  -0.000211986
2040    0.110462    0.641312    -5.12306  -0.000110258
2050    0.106863    0.639861    -5.16433  0.000589706
2060   0.0986681    0.636557    -5.32951  0.000176281
2070    0.103338    0.638439    -3.99494  -0.000205711
2080    0.102782    0.638215    -5.41531  0.000183546
2090   0.0996669    0.636959    -4.91384  0.000235112
2100     0.09808    0.636319    -4.37114  0.000133199
2110   0.0970029    0.635885    -2.53258  0.000204174
2120   0.0939966    0.634673    -4.41286  0.000101736
2130   0.0949682    0.635065    -2.15755  -0.000103717
2140   0.0960709    0.635509    -1.86572  0.00017311
2150    0.091506    0.633669     -1.6976  1.18844e-05
2160   0.0958332    0.635413    -2.40874  -5.85802e-05
2170   0.0926776    0.634141    -3.36968  -7.44276e-06
2180   0.0959821    0.635473    -3.24551  -0.000123606
2190   0.0951497    0.635138    -2.32666  0.00051137
2200   0.0857547    0.631349    -2.28347  0.000258874
2210   0.0899722     0.63305    -1.99217  -1.91942e-05
2220   0.0861386    0.631504    -3.57923  -0.000182548
2230   0.0936232    0.634522    -4.54265  2.88337e-07
2240   0.0861328    0.631502    -3.74661  0.000390964
2250   0.0858039    0.631369    -3.62168  -5.85731e-05
2260   0.0873042    0.631974    -4.29167  1.99333e-05
2270   0.0854052    0.631209    -3.74796  0.000419508
2280   0.0789141    0.628591    -4.58253  0.000144729
2290   0.0825107    0.630041     -5.7953  6.68801e-05
2300   0.0775765    0.628052    -3.41347  0.000296753
2310   0.0765756    0.627648    -4.08212  6.06794e-05
2320   0.0763629    0.627562    -4.16657  -8.4212e-05
2330   0.0782598    0.628327    -4.37579  -5.13002e-05
2340   0.0773889    0.627976    -4.12584  0.000318718
2350   0.0718855    0.625757    -4.45988  0.000292791
2360   0.0715331    0.625615    -2.58061  8.16841e-05
2370   0.0702518    0.625098    -1.62025  0.000393869
2380   0.0636557    0.622438    -2.20363  0.000348038
2390    0.063291    0.622291    -2.16192  -3.45148e-06
2400   0.0637247    0.622466    -2.16241  0.000209894
2410   0.0590931    0.620599    -3.79098  0.000150087
2420    0.060723    0.621256    -4.04335  -2.95637e-05
2430   0.0596844    0.620837    -4.25237  0.000358274
2440   0.0535575    0.618367    -3.54118  0.000258386
2450   0.0545167    0.618753    -3.50037  -0.000149732
2460   0.0565521    0.619574    -2.24735  -0.000143317
2470    0.057383    0.619909    -3.20882  0.000239658
2480    0.051759    0.617641    -3.62559  0.000266797
2490   0.0520471    0.617758    -3.08363  -9.63036e-05
2500   0.0536851    0.618418     -4.0451  1.83219e-05
2510   0.0516807     0.61761     -4.7129  0.000315725
2520   0.0473706    0.615872    -3.24935  -4.92824e-05
2530   0.0526663    0.618007    -4.21212  -8.10046e-06
2540   0.0475326    0.615937    -4.21094  0.000303567
2550    0.046595    0.615559    -3.83539  3.26678e-05
2560   0.0468792    0.615674    -3.75253  -4.88909e-05
2570   0.0475728    0.615953     -4.7142  0.000135113
2580    0.044177    0.614584    -2.29037  9.42489e-05
2590   0.0456878    0.615193    -2.04065  0.00010164
2600   0.0421442    0.613764    -3.54408  -0.000206465
2610   0.0498171    0.616858    -3.88061  -0.000144537
2620   0.0450349     0.61493    -2.87722  0.000149355
2630     0.04683    0.615654    -3.29661  0.000122704
2640   0.0425808     0.61394    -2.62759  0.000514969
2650   0.0365306    0.611501    -3.62926  0.000419722
2660   0.0341864    0.610556    -2.41788  0.000138173
2670   0.0337671    0.610387    -2.20943  0.000111056
2680   0.0319652     0.60966    -3.75543  0.000118151
2690   0.0314041    0.609434    -3.50473  7.83429e-07
2700   0.0319496    0.609654    -2.87869  0.000132689
2710   0.0287503    0.608364    -3.96481  2.16184e-05
2720   0.0315172    0.609479    -3.17155  -0.000235349
2730   0.0334573    0.610262    -2.79547  0.000307425
2740   0.0253687       0.607    -3.58873  0.000126178
2750   0.0309338    0.609244    -3.38081  9.95113e-05
2760   0.0233785    0.606198    -3.17041  0.000413736
2770   0.0226591    0.605907    -3.38077  0.000121093
2780   0.0209566    0.605221    -3.37926  -1.19511e-05
2790   0.0228981    0.606004    -2.87857  -0.000145239
2800   0.0238614    0.606392    -2.79608  2.31557e-05
2810    0.022435    0.605817    -4.84424  0.000163975
2820   0.0205819     0.60507    -4.46775  0.000100901
2830   0.0204169    0.605003    -5.17877  0.000390957
2840   0.0127628    0.601917    -4.38351  0.000150974
2850   0.0173975    0.603786    -3.75779  -0.000159466
2860   0.0159521    0.603203    -4.00873  -5.39093e-05
2870   0.0184757    0.604221    -5.17881  0.000329886
2880  0.00935438    0.600543    -4.46698  0.000152105
2890   0.0154336    0.602994    -4.30183  7.52173e-05
2900  0.00785003    0.599936    -4.92661  0.000188653
2910   0.0116605    0.601472    -4.76122  -0.000388769
2920   0.0156254    0.603071     -4.0111  0.000132445
2930  0.00901159    0.600404    -4.30179  0.000268238
2940   0.0102607    0.600908    -3.50861  -0.000168143
2950   0.0123745     0.60176    -3.55102  -4.64149e-05
2960    0.011189    0.601282    -4.17718  0.000312998
2970   0.0061145    0.599236    -3.50808  -3.94601e-05
2980   0.0119782    0.601601    -3.34159  -0.000305784
2990   0.0122302    0.601702    -2.75779  0.000321645
3000  0.00554525    0.599007    -2.71404  0.00017008
3010  0.00882859    0.600331    -3.29991  1.18328e-05
3020   0.0053086    0.598911    -2.21383  5.49366e-05
3030  0.00772986    0.599888    -2.71543  -0.000257012
3040   0.0104488    0.600984    -2.79906  -1.02586e-05
3050  0.00793503     0.59997    -2.96616  -0.000178306
3060   0.0140149    0.602422    -2.55069  -1.03103e-05
3070  0.00814124    0.600053     -3.1342  0.000478569
3080  0.00444356    0.598562     -2.4651  -9.82252e-05
3090   0.0101057    0.600846    -3.09379  -5.38502e-05
3100  0.00552057    0.598997     -2.8424  0.000510608
3110  -0.000106429    0.596728    -2.34028  0.000137027
3120  0.00278002    0.597892    -3.21902  -0.000119718
3130  0.00228793    0.597693     -3.3444  -0.000164522
3140  0.00607045    0.599218    -2.88567  -3.91349e-05
3150  0.00307063    0.598009    -2.50918   0.0002043
3160  0.00198446    0.597571    -4.72399  9.39385e-05
3170  0.00119186    0.597251    -3.13661  0.000264831
3180  -0.00331216    0.595435    -3.34461  0.000228202
3190  -0.00337218    0.595411    -4.01375  -9.06791e-05
3200  -0.00149858    0.596166    -2.88616  0.000304077
3210  -0.00945371    0.592959    -4.42946  0.000102763
3220  -0.00355385    0.595338    -4.09791  -0.000269539
3230  -0.00406293    0.595132    -4.30628  -6.12485e-05
3240  -0.00232888    0.595832    -4.72469  -0.000106237
3250  -0.00193819    0.595989    -4.26562  -5.41384e-05
3260  -0.00124611    0.596268    -4.09811  0.00019379
3270  -0.00581399    0.594426     -3.7635  -3.18548e-05
3280  -0.000609011    0.596525    -4.47542  -0.000159378
3290  -0.00262643    0.595712    -3.76432  2.83663e-05
3300  -0.00117634    0.596296    -3.80763  0.000255541
3310  -0.00773725    0.593651    -6.14583  0.000263294
3320  -0.00644221    0.594173    -4.64207  -9.17803e-05
3330  -0.00590164    0.594391    -5.97893  -0.000137707
3340  -0.00368806    0.595284    -5.60374  2.17515e-05
3350  -0.00633667    0.594216    -6.56375  8.24086e-05
3360  -0.00533624    0.594619    -5.39546  -7.73015e-05
3370  -0.00479064    0.594839    -5.85379  0.000105823
3380  -0.0074527    0.593765    -4.93632  7.52838e-05
3390  -0.00629632    0.594232    -5.18709  -0.000161802
3400  -0.00421666     0.59507    -5.27072  -5.47075e-05
3410  -0.00520217    0.594673    -4.77007  0.000206273
3420  -0.00834212    0.593407    -5.56272  -0.00013209
3430  -0.00256036    0.595738    -5.56415  0.000276901
3440  -0.0138801    0.591174    -4.18346  0.000284151
3450  -0.00824338    0.593447    -4.43566  -0.000378858
3460  -0.00630297    0.594229    -3.39236  -3.94305e-05
3470  -0.00745477    0.593765    -4.77052  0.000223967
3480  -0.0107823    0.592423    -5.39648  0.000193413
3490   -0.011323    0.592205    -4.56056  0.000186458
3500  -0.0145115    0.590919    -3.89183  0.000155645
3510  -0.0144359     0.59095    -4.64387  8.04872e-06
3520  -0.0146724    0.590854     -4.9364  -0.000234336
3530  -0.0097492    0.592839    -3.80954  -0.000101536
3540  -0.0126417    0.591673    -4.35297  0.000226938
3550   -0.014288    0.591009    -5.06305  -0.000188572
3560  -0.00887028    0.593194    -4.68864  -0.000102068
3570  -0.0122466    0.591832    -3.64321  0.000353951
3580  -0.0159493    0.590339    -4.60464  0.000481311
3590  -0.0218728    0.587951    -4.14407  3.20618e-05
3600  -0.0165905    0.590081    -3.89415  0.000112201
3610  -0.0241168    0.587046    -4.47771  -0.000134226
3620   -0.013906    0.591163    -5.19007  -0.000165002
3630  -0.0208168    0.588377    -4.35293  0.000262643
3640  -0.0191589    0.589045    -4.31126  -0.000134182
3650  -0.0181332    0.589459     -4.1026  -0.000158587
3660  -0.0159871    0.590324    -3.76962  7.90879e-07
3670   -0.018149    0.589452    -2.93313  0.000136532
3680  -0.0187178    0.589223    -4.81317  -0.000119415
3690  -0.0157607    0.590415    -4.77256  -4.72501e-05
3700  -0.0177728    0.589604    -6.06729  8.08788e-05
3710  -0.0173782    0.589763    -5.98444  -0.000297285
3720  -0.0118271    0.592002    -4.98338  -0.000128395
3730  -0.0148104    0.590799    -5.52513  -7.29113e-05
3740  -0.0103689     0.59259    -3.27011  -6.44487e-05
3750  -0.0135214    0.591318    -3.77101  0.000210345
3760  -0.0145758    0.590893     -2.6844  -3.2387e-05
3770  -0.0128736     0.59158    -3.60277  -0.00029251
3780  -0.00872556    0.593252    -3.68754  -0.000122209
3790  -0.0104295    0.592565    -4.06346  -0.00013124
3800  -0.00610075    0.594311    -3.10334  -0.000425369
3810  -0.00192208    0.595996    -3.52138  -0.000132061
3820  -0.00345954    0.595376    -3.02007  0.000170397
3830  -0.00533003    0.594621    -3.22885  -0.00025611
3840  0.00166266    0.597441    -3.39783  -8.34803e-05
3850  -0.00366042    0.595295    -3.85587  0.000327166
3860  -0.00488066    0.594803    -1.76685  -6.75529e-05
3870  -0.00230936    0.595839    -2.06056  -6.74421e-05
3880  -0.00353182    0.595347     -3.9397  0.000230079
3890  -0.00691095    0.593984    -2.39322  -5.12929e-05
3900  -0.00250596     0.59576    -1.97709  -0.00022529
3910  -0.00240515    0.595801    -2.35277  0.000123059
3920  -0.00496714    0.594768     -2.0593  -1.83738e-05
3930  -0.00203767    0.595949     -1.9355  0.000148956
3940  -0.00794626    0.593566    -1.34958  0.000123583
3950  -0.00450934    0.594952    -2.47832  4.9423e-05
3960  -0.00893472    0.593168    -2.51885  0.000132844
3970  -0.00716623    0.593881    -2.60281  -0.000404032
3980  -0.000854094    0.596426    -1.89481  -0.00034605
3990  -0.00024523    0.596672    -3.89983  0.000124456
4000  -0.0033432    0.595423    -3.14721  0.000377897
4010  -0.00780318    0.593624    -4.10746  0.000125283
4020  -0.00584887    0.594412    -3.31456  -0.00035673
4030  -0.000668582    0.596501    -2.98105  -1.18993e-06
4040  -0.00582507    0.594422    -2.68762  -1.0569e-05
4050  -0.000457202    0.596586    -2.89746  -0.000265223
4060  -0.000520616    0.596561    -3.77542  -5.3318e-05
4070  0.000609159    0.597016    -4.27648  0.00011756
4080  -0.00287181    0.595613    -3.39872  6.6193e-05
4090  -0.000714701    0.596482    -3.19101  5.83217e-05
4100  -0.00403825    0.595142    -4.10937  -6.21945e-05
4110  0.000529189    0.596984    -3.06582  5.00956e-05
4120  -0.00504016    0.594738     -5.0286  0.000351031
4130  -0.00649144    0.594153    -3.94244  -7.04354e-05
4140  -0.00363145    0.595306     -3.1075  -0.000433484
4150  0.00217825    0.597649    -4.23725  -5.35619e-05
4160  -0.00256021    0.595738    -3.48407  0.000492013
4170  -0.00766201    0.593681    -3.10721  0.000172046
4180  -0.00600112    0.594351    -4.02672  -7.05832e-05
4190  -0.00625035     0.59425    -4.36207  -1.86399e-05
4200  -0.00562833    0.594501    -3.81791  -5.35693e-05
4210  -0.00517896    0.594682    -3.77729  -0.000158801
4220  -0.0024523    0.595782    -4.15415  6.00438e-05
4230  -0.00637983    0.594198    -2.85807  0.000314343
4240  -0.00873916    0.593247     -4.1528  7.80258e-05
4250  -0.00794035    0.593569    -4.02758  -0.000344439
4260  -0.00185039    0.596025    -5.24035  -0.00020393
4270  -0.00386175    0.595213    -3.86113  -0.000125756
4280  0.000664739    0.597039     -3.6115  -0.000223102
4290  0.00060029    0.597013    -4.28035  0.000192858
4300  -0.00319243    0.595483    -4.15415  0.000273227
4310  -0.00486425    0.594809     -4.2799  0.000238741
4320  -0.00796725    0.593558    -3.65215  -9.95556e-05
4330  -0.00287314    0.595612    -2.86003  -9.02578e-05
4340  -0.0061621    0.594286    -3.56942  0.000123546
4350  -0.00534407    0.594616    -5.15688  -0.000144707
4360  -0.00326797    0.595453    -3.77958  0.000232289
4370  -0.00998985    0.592742    -5.03121  0.00014229
4380  -0.00611376    0.594305    -4.61407  -0.00025302
4390  -0.00492944    0.594783    -4.78182  -0.000326434
4400  0.000414926    0.596938    -3.78011  5.28598e-05
4410  -0.00598664    0.594357    -3.57048  9.73457e-05
4420  -0.00153199    0.596153    -3.98909  -0.000101159
4430  -0.00396345    0.595172    -4.36431  -2.02585e-05
4440  -0.00112682    0.596316    -4.57447  -8.36429e-05
4450  -0.00229059    0.595847    -4.19794  0.000217019
4460  -0.0054672    0.594566    -4.32305  2.55282e-05
4470  -0.00280116    0.595641    -4.61651  -0.000111329
4480  -0.00324062    0.595464    -4.19852  0.000374579
4490  -0.0102927     0.59262    -4.28096  0.000154596
4500  -0.00633253    0.594217    -3.11235  -2.8152e-05
4510  -0.00972969    0.592847    -4.15623  0.000377269
4520  -0.0138779    0.591175    -4.23901  0.000119629
4530  -0.0121223    0.591883    -3.65505  -0.000314845
4540  -0.00758101    0.593714    -4.78345  -0.00026934
4550  -0.00673549    0.594055    -5.20223  8.33694e-06
4560  -0.00774774    0.593647    -4.57513  -1.04507e-05
4570  -0.00652647    0.594139    -4.32529  -5.69913e-05
4580  -0.00660792    0.594106    -5.16125  0.000139075
4590  -0.00930797    0.593017    -4.36688  -1.99037e-05
4600  -0.00620984    0.594267    -4.99423  -0.000216532
4610  -0.00497734    0.594764    -5.11958  0.000111595
4620  -0.00844175    0.593367    -4.61713  0.000130413
4630  -0.00758559    0.593712    -5.74578  -0.000350034
4640  -0.00144108     0.59619     -6.1228  1.78786e-05
4650  -0.00794316    0.593568    -4.45056  4.51732e-05
4660  -0.00234454    0.595825    -3.70047  -5.78782e-05
4670  -0.0067856    0.594034    -5.07802  0.000540032
4680  -0.0131452     0.59147    -4.49255  0.000379922
4690   -0.014384    0.590971    -3.23872  -3.81667e-05
4700  -0.0123818    0.591778    -3.03007  -0.000267507
4710  -0.00903391    0.593128    -3.36488  4.7834e-05
4720  -0.0133385    0.591392    -3.36411  -6.79224e-05
4730  -0.00767546    0.593676    -3.11472  -0.000134596
4740  -0.0106466    0.592478    -4.45113  0.00043259
4750  -0.0163273    0.590187    -4.07464  -8.73088e-05
4760  -0.00890043    0.593182    -4.15949  -0.000328223
4770  -0.0097628    0.592834    -5.24533  -0.000146163
4780  -0.00597718     0.59436    -4.61937  -0.000282155
4790  -0.00411969    0.595109     -4.9537  0.000164041
4800   -0.009258    0.593038    -4.36839  0.000563594
4810  -0.0153916    0.590564      -4.911  -2.99923e-05
4820  -0.00865816    0.593279    -5.24684  0.000157027
4830  -0.0185321    0.589298    -5.20398  0.00073445
4840  -0.0233471    0.587356    -4.57721  9.93043e-05
4850  -0.0205182    0.588497    -4.70308  -0.000125941
4860  -0.0208283    0.588372    -5.70529  0.000178993
4870  -0.0240981    0.587054    -5.49676  0.000189259
4880  -0.0246135    0.586846     -4.8699  -0.000255216
4890  -0.0189938    0.589112     -7.2941  -8.6991e-05
4900  -0.0228737    0.587547    -6.54157  -9.8203e-05
4910  -0.0170297    0.589904    -5.83214  -7.98218e-06
4920   -0.022714    0.587612    -5.62271  0.000220316
4930   -0.021436    0.588127    -5.49729  -7.80702e-05
4940  -0.0211526    0.588241    -5.41394  -0.000358947
4950  -0.0142571    0.591022    -3.91178  -0.000299502
4960  -0.0151626    0.590657    -5.87545  0.000261734
4970  -0.0194918    0.588911    -5.20639  0.000171757
4980  -0.0185977    0.589271    -4.70521  0.000172969
4990  -0.0229511    0.587516    -5.33129  0.000174181
