Time   Number   
ps   
0          24          29
10          26          27
20          25          27
30          27          29
40          29          20
50          24          29
60          23          27
70          29          27
80          26          33
90          19          32
100          25          29
110          26          26
120          21          32
130          20          34
140          27          27
150          21          33
160          22          31
170          26          26
180          28          28
190          26          32
200          30          28
210          24          29
220          26          35
230          26          29
240          24          37
250          28          22
260          22          34
270          26          24
280          26          25
290          23          26
300          24          28
310          25          26
320          25          26
330          23          28
340          25          28
350          22          31
360          26          26
370          24          31
380          27          24
390          23          35
400          25          26
410          24          28
420          26          27
430          26          24
440          23          29
450          25          33
460          24          30
470          23          25
480          26          26
490          24          26
500          23          25
510          25          22
520          27          26
530          25          29
540          26          28
550          28          29
560          29          30
570          29          24
580          28          29
590          25          27
600          25          29
610          22          31
620          26          27
630          25          27
640          29          27
650          28          24
660          25          28
670          28          29
680          27          27
690          26          26
700          27          25
710          26          26
720          26          30
730          25          33
740          24          26
750          27          27
760          26          26
770          25          26
780          24          24
790          27          26
800          28          23
810          26          29
820          25          24
830          25          26
840          24          27
850          25          32
860          31          21
870          24          26
880          26          26
890          28          27
900          23          31
910          23          33
920          25          27
930          28          27
940          27          28
950          23          28
960          20          33
970          25          30
980          25          25
990          23          30
1000          26          25
1010          25          28
1020          25          26
1030          26          23
1040          26          24
1050          25          29
1060          24          29
1070          26          23
1080          26          25
1090          24          27
1100          26          27
1110          24          28
1120          25          26
1130          24          25
1140          21          29
1150          21          30
1160          22          31
1170          29          19
1180          26          21
1190          23          28
1200          26          26
1210          22          25
1220          25          24
1230          24          21
1240          26          22
1250          23          25
1260          21          24
1270          26          24
1280          23          27
1290          25          26
1300          25          24
1310          24          23
1320          24          27
1330          24          27
1340          24          24
1350          26          25
1360          27          21
1370          24          25
1380          22          30
1390          21          28
1400          23          31
1410          23          26
1420          26          28
1430          20          33
1440          27          25
1450          22          32
1460          22          26
1470          29          26
1480          21          32
1490          24          25
1500          24          28
1510          23          32
1520          25          23
1530          26          25
1540          19          34
1550          24          29
1560          24          27
1570          22          27
1580          22          27
1590          22          28
1600          23          29
1610          26          24
1620          21          37
1630          24          28
1640          23          33
1650          25          28
1660          23          29
1670          22          33
1680          26          24
1690          26          27
1700          24          31
1710          29          26
1720          22          28
1730          23          29
1740          22          30
1750          25          30
1760          24          28
1770          23          31
1780          21          32
1790          24          29
1800          24          33
1810          24          25
1820          26          27
1830          24          27
1840          20          35
1850          26          32
1860          26          28
1870          28          33
1880          23          30
1890          25          30
1900          25          29
1910          24          34
1920          28          27
1930          26          26
1940          27          28
1950          27          30
1960          23          30
1970          25          32
1980          20          35
1990          25          28
2000          23          34
2010          27          32
2020          27          31
2030          21          36
2040          26          32
2050          22          40
2060          27          27
2070          23          35
2080          23          35
2090          23          36
2100          22          33
2110          25          34
2120          24          32
2130          29          28
2140          25          34
2150          27          33
2160          24          32
2170          25          34
2180          22          31
2190          20          37
2200          24          31
2210          25          35
2220          25          31
2230          24          34
2240          26          26
2250          22          33
2260          24          30
2270          25          30
2280          24          28
2290          24          32
2300          29          29
2310          23          32
2320          26          31
2330          26          26
2340          24          35
2350          23          32
2360          19          32
2370          27          32
2380          24          27
2390          24          32
2400          26          30
2410          27          25
2420          26          26
2430          24          26
2440          29          24
2450          24          27
2460          24          29
2470          28          28
2480          25          29
2490          21          30
2500          27          30
2510          23          29
2520          21          38
2530          23          33
2540          19          36
2550          21          31
2560          21          33
2570          22          30
2580          26          26
2590          27          28
2600          25          27
2610          27          32
2620          30          25
2630          27          24
2640          22          27
2650          25          28
2660          26          30
2670          23          28
2680          22          30
2690          24          29
2700          25          26
2710          22          29
2720          26          22
2730          27          26
2740          24          28
2750          23          29
2760          22          32
2770          22          37
2780          21          29
2790          21          30
2800          26          29
2810          26          27
2820          23          30
2830          25          27
2840          24          27
2850          21          26
2860          20          33
2870          21          31
2880          23          26
2890          26          27
2900          26          25
2910          25          25
2920          25          22
2930          20          35
2940          22          24
2950          19          35
2960          22          30
2970          21          30
2980          23          33
2990          19          33
3000          24          31
3010          18          39
3020          23          29
3030          21          33
3040          21          35
3050          26          31
3060          24          31
3070          24          30
3080          28          25
3090          23          33
3100          27          24
3110          28          28
3120          27          25
3130          26          29
3140          25          26
3150          26          25
3160          26          32
3170          25          31
3180          26          28
3190          28          33
3200          24          31
3210          29          24
3220          21          35
3230          23          31
3240          21          37
3250          23          33
3260          25          30
3270          25          31
3280          20          37
3290          26          31
3300          24          28
3310          25          30
3320          23          27
3330          28          33
3340          25          32
3350          25          28
3360          23          41
3370          20          33
3380          22          34
3390          26          31
3400          24          26
3410          26          36
3420          28          28
3430          25          32
3440          24          32
3450          29          30
3460          27          27
3470          25          28
3480          27          29
3490          25          29
3500          25          32
3510          27          27
3520          32          26
3530          28          31
3540          26          30
3550          26          34
3560          30          26
3570          26          38
3580          28          31
3590          26          25
3600          26          29
3610          26          35
3620          30          26
3630          25          34
3640          25          27
3650          23          32
3660          27          30
3670          21          33
3680          26          31
3690          28          34
3700          25          33
3710          25          33
3720          27          34
3730          25          32
3740          27          25
3750          22          33
3760          25          32
3770          21          37
3780          21          31
3790          24          30
3800          25          30
3810          24          32
3820          26          33
3830          28          26
3840          25          32
3850          24          26
3860          25          31
3870          26          30
3880          23          35
3890          24          31
3900          22          31
3910          28          28
3920          24          28
3930          28          30
3940          26          28
3950          25          32
3960          21          33
3970          24          26
3980          28          28
3990          21          30
4000          26          29
4010          25          30
4020          26          32
4030          26          34
4040          30          27
4050          28          31
4060          25          30
4070          24          29
4080          31          28
4090          30          24
4100          29          28
4110          27          30
4120          23          29
4130          24          27
4140          25          25
4150          24          33
4160          25          24
4170          28          27
4180          27          27
4190          27          31
4200          30          28
4210          26          27
4220          25          30
4230          26          31
4240          26          33
4250          26          33
4260          27          32
4270          22          34
4280          25          34
4290          28          30
4300          23          34
4310          26          30
4320          26          32
4330          25          30
4340          26          29
4350          27          33
4360          26          30
4370          24          30
4380          25          32
4390          25          31
4400          27          31
4410          28          28
4420          26          28
4430          30          26
4440          27          25
4450          20          36
4460          24          29
4470          24          28
4480          26          31
4490          24          30
4500          26          30
4510          28          27
4520          26          36
4530          27          31
4540          26          35
4550          24          35
4560          29          30
4570          27          34
4580          25          28
4590          26          39
4600          26          30
4610          25          35
4620          24          34
4630          21          37
4640          24          32
4650          26          35
4660          24          36
4670          24          36
4680          22          40
4690          22          37
4700          28          38
4710          23          36
4720          27          33
4730          28          35
4740          27          30
4750          23          35
4760          24          35
4770          24          35
4780          28          31
4790          26          32
4800          28          29
4810          28          33
4820          24          34
4830          25          31
4840          27          36
4850          27          40
4860          29          33
4870          28          31
4880          28          28
4890          23          30
4900          21          37
4910          23          35
4920          25          29
4930          20          32
4940          20          29
4950          22          30
4960          25          26
4970          21          31
4980          21          36
4990          24          26
5000          21          29
5010          27          26
5020          26          31
5030          20          31
5040          21          30
5050          20          34
5060          22          35
5070          23          34
5080          28          27
5090          23          22
5100          23          30
5110          23          28
5120          26          28
5130          22          29
5140          22          33
5150          24          29
5160          21          30
5170          23          30
5180          24          30
5190          25          29
5200          20          38
5210          24          30
5220          18          35
5230          20          32
5240          24          33
5250          27          30
5260          26          32
5270          22          30
5280          25          30
5290          22          28
5300          26          32
5310          19          33
5320          24          26
5330          24          24
5340          25          31
5350          28          25
5360          20          33
5370          22          32
5380          27          27
5390          23          30
5400          22          32
5410          24          28
5420          23          31
5430          23          28
5440          27          25
5450          31          24
5460          27          26
5470          22          32
5480          25          23
5490          25          24
5500          22          24
5510          23          29
5520          24          26
5530          27          22
5540          26          25
5550          20          31
5560          24          27
5570          23          29
5580          22          29
5590          22          32
5600          25          24
5610          24          25
5620          25          26
5630          19          39
5640          24          25
5650          23          27
5660          22          29
5670          25          26
5680          26          30
5690          26          27
5700          24          23
5710          22          29
5720          24          26
5730          23          31
5740          23          28
5750          20          31
5760          21          31
5770          22          31
5780          24          29
5790          24          27
5800          29          23
5810          20          30
5820          18          29
5830          28          24
5840          26          27
5850          24          29
5860          26          27
5870          25          25
5880          24          24
5890          27          26
5900          24          22
5910          26          28
5920          23          29
5930          23          26
5940          25          21
5950          22          31
5960          22          29
5970          27          26
5980          22          30
5990          21          31
6000          20          30
6010          25          29
6020          24          28
6030          26          27
6040          23          26
6050          26          27
6060          24          27
6070          22          27
6080          22          27
6090          22          32
6100          21          29
6110          24          26
6120          26          26
6130          26          32
6140          25          29
6150          25          29
6160          27          23
6170          26          27
6180          30          25
6190          22          31
6200          21          30
6210          22          33
6220          24          33
6230          25          24
6240          27          25
6250          21          34
6260          27          28
6270          24          28
6280          23          29
6290          24          31
6300          21          31
6310          21          30
6320          25          32
6330          22          35
6340          22          29
6350          27          27
6360          24          28
6370          27          32
6380          25          29
6390          27          24
6400          25          28
6410          22          34
6420          21          35
6430          23          31
6440          21          32
6450          26          26
6460          23          31
6470          24          29
6480          25          30
6490          25          25
6500          24          27
6510          25          28
6520          21          33
6530          23          27
6540          23          30
6550          27          24
6560          24          30
6570          21          28
6580          25          29
6590          25          27
6600          27          23
6610          22          31
6620          25          29
6630          24          29
6640          21          30
6650          23          31
6660          26          27
6670          23          31
6680          26          30
6690          25          29
6700          22          30
6710          26          25
6720          22          34
6730          23          30
6740          21          36
6750          25          26
6760          24          30
6770          23          31
6780          25          28
6790          22          30
6800          26          33
6810          24          31
6820          23          29
6830          24          23
6840          24          28
6850          26          25
6860          23          31
6870          26          28
6880          25          31
6890          25          29
6900          24          32
6910          25          27
6920          24          24
6930          24          26
6940          20          34
6950          28          25
6960          24          30
6970          22          28
6980          27          29
6990          24          26
7000          23          36
7010          28          27
7020          22          36
7030          25          29
7040          28          29
7050          25          29
7060          20          31
7070          22          34
7080          24          34
7090          29          33
7100          25          34
7110          26          31
7120          24          28
7130          27          33
7140          21          31
7150          22          33
7160          22          31
7170          24          28
7180          26          31
7190          22          29
7200          23          37
7210          25          31
7220          28          32
7230          21          33
7240          22          35
7250          25          32
7260          25          32
7270          23          33
7280          26          32
7290          27          32
7300          28          37
7310          23          33
7320          23          40
7330          26          31
7340          28          29
7350          27          32
7360          26          34
7370          25          34
7380          27          30
7390          27          32
7400          27          32
7410          25          31
7420          27          31
7430          28          29
7440          28          30
7450          26          32
7460          28          27
7470          25          35
7480          25          34
7490          27          29
7500          24          37
7510          26          32
7520          25          32
7530          24          31
7540          25          32
7550          24          32
7560          31          27
7570          28          30
7580          27          28
7590          24          31
7600          26          30
7610          23          39
7620          26          29
7630          24          30
7640          24          32
7650          28          27
7660          24          31
7670          27          32
7680          26          28
7690          28          34
7700          25          31
7710          29          29
7720          31          27
7730          26          29
7740          29          28
7750          26          33
7760          26          33
7770          28          31
7780          27          31
7790          24          33
7800          29          27
7810          26          27
7820          22          40
7830          24          31
7840          23          32
7850          27          27
7860          26          32
7870          29          29
7880          26          27
7890          29          32
7900          26          29
7910          27          31
7920          26          34
7930          26          35
7940          25          30
7950          26          31
7960          27          35
7970          26          33
7980          23          32
7990          26          33
8000          28          31
8010          26          37
8020          25          33
8030          27          32
8040          26          30
8050          25          30
8060          25          29
8070          27          29
8080          28          32
8090          30          30
8100          28          30
8110          27          35
8120          27          33
8130          27          29
8140          26          35
8150          30          32
8160          25          36
8170          23          36
8180          26          32
8190          28          31
8200          26          31
8210          26          34
8220          29          32
8230          28          27
8240          27          33
8250          23          37
8260          25          33
8270          25          32
8280          25          33
8290          29          29
8300          22          37
8310          23          35
8320          26          35
8330          25          32
8340          23          31
8350          26          33
8360          24          30
8370          22          33
8380          24          28
8390          22          37
8400          26          24
8410          25          30
8420          25          29
8430          26          26
8440          23          33
8450          23          33
8460          25          26
8470          26          31
8480          25          30
8490          24          35
8500          23          25
8510          22          31
8520          25          31
8530          23          29
8540          22          29
8550          20          24
8560          20          31
8570          22          26
8580          21          29
8590          23          26
8600          21          27
8610          24          26
8620          26          24
8630          23          25
8640          23          27
8650          26          24
8660          24          27
8670          21          33
8680          20          29
8690          23          23
8700          22          28
8710          23          27
8720          19          34
8730          21          30
8740          20          25
8750          25          26
8760          24          26
8770          20          35
8780          22          29
8790          24          21
8800          26          30
8810          25          26
8820          28          23
8830          25          28
8840          22          30
8850          21          26
8860          22          30
8870          26          27
8880          25          27
8890          23          29
8900          26          23
8910          21          35
8920          25          29
8930          22          29
8940          25          27
8950          24          30
8960          25          27
8970          23          27
8980          27          25
8990          24          30
9000          23          29
9010          23          26
9020          24          27
9030          21          25
9040          24          26
9050          25          25
9060          22          32
9070          22          31
9080          25          28
9090          24          30
9100          20          30
9110          26          29
9120          23          27
9130          22          30
9140          24          30
9150          25          30
9160          25          28
9170          26          30
9180          26          23
9190          23          29
9200          20          32
9210          23          35
9220          23          26
9230          26          28
9240          23          29
9250          23          29
9260          22          31
9270          25          30
9280          27          27
9290          25          26
9300          26          22
9310          27          30
9320          23          34
9330          20          27
9340          21          32
9350          21          29
9360          20          31
9370          24          28
9380          25          25
9390          23          28
9400          25          31
9410          23          27
9420          21          29
9430          25          28
9440          22          32
9450          26          23
9460          25          30
9470          26          32
9480          27          27
9490          25          27
9500          23          29
9510          26          30
9520          23          33
9530          21          33
9540          26          28
9550          20          35
9560          21          33
9570          19          32
9580          30          24
9590          28          31
9600          21          40
9610          27          27
9620          21          27
9630          25          30
9640          22          28
9650          28          24
9660          24          29
9670          21          33
9680          19          32
9690          25          27
9700          22          25
9710          22          35
9720          20          32
9730          24          27
9740          24          28
9750          24          26
9760          20          35
9770          21          32
9780          21          29
9790          22          30
9800          26          27
9810          24          29
9820          22          35
9830          21          32
9840          24          31
9850          22          30
9860          22          32
9870          25          32
9880          25          35
9890          26          32
9900          25          33
9910          26          30
9920          27          28
9930          22          28
9940          25          25
9950          23          34
9960          21          29
9970          20          30
9980          24          25
9990          26          25
10000          19          38
