Time   C(t)   
ps   
0           1           1  3.36224e-10   0.0164376
10    0.839261    0.843537    -1.11282  0.00954268
20    0.809146    0.814223  -0.00159814  0.00264779
30    0.786306     0.79199   -0.496562  0.00212152
40    0.766716    0.772921    0.121268  0.00183325
50    0.749641      0.7563    0.490772  0.00168119
60    0.733092    0.740192    0.984348   0.0016066
70    0.717509    0.725023      1.1077  0.00149437
80    0.703205    0.711099    0.551119  0.00138801
90    0.689749    0.698001   -0.438144   0.0013658
100    0.675889     0.68451    -1.11867  0.00136856
110    0.662377    0.671357    -1.11873  0.00121141
120    0.651661    0.660926    -2.78829  0.00105705
130    0.641236    0.650779    -1.92497   0.0010969
140    0.629723    0.639571    -2.85261  0.00122491
150    0.616738    0.626932    -1.74006  0.00106673
160    0.608388    0.618804    -2.29815  0.00097459
170    0.597246    0.607959    -1.67941  0.00100801
180    0.588228     0.59918    -1.98839  0.000962758
190    0.577991    0.589216    -2.35904  0.000853997
200    0.571148    0.582555    -1.92804  0.000732529
210    0.563341    0.574955    0.294771  0.000829023
220    0.554567    0.566415    0.664877  0.000798941
230    0.547362    0.559401   -0.138881  0.000841922
240    0.537729    0.550025     0.72619  0.000903907
250    0.529284    0.541804    -1.92937  0.000756311
260    0.522603    0.535301    -1.37394  0.000636965
270    0.516544    0.529403    0.909765  0.000635132
280      0.5099    0.522936    0.539236  0.000620437
290    0.504136    0.517325    0.230744  0.000628153
300    0.497337    0.510707   -0.326437  0.000635786
310     0.49142    0.504947   -0.820617  0.000617953
320    0.484978    0.498677   -0.264702  0.000664055
330    0.478139    0.492019      1.3407  0.000591622
340    0.473146    0.487159    0.351438   0.0005448
350    0.467243    0.481413   -0.513451  0.000613394
360    0.460878    0.475217    -1.44074  0.00062428
370    0.454757     0.46926   -0.267175  0.000483862
380      0.4512    0.465798   -0.514778  0.000507584
390    0.444605    0.459378    -1.07148  0.000595632
400    0.439288    0.454202    0.472676  0.000574318
410    0.433119    0.448197   -0.391731   0.0005399
420     0.42849    0.443691    -0.76232  0.000414856
430    0.424822    0.440121    -0.26995  0.00051299
440     0.41823    0.433704    0.348543  0.000494441
450    0.414933    0.430495   -0.271217  0.000476164
460    0.408707    0.424434   -0.147325  0.000581051
470    0.403312    0.419183     1.52018   0.0006051
480    0.396605    0.412654    0.347156  0.000593276
490    0.391447    0.407633     1.21138  0.00039566
500    0.388692    0.404951    0.901743  0.000354162
510    0.384363    0.400738     0.28331  0.000452895
520    0.379634    0.396134    -0.58164  0.000408018
530    0.376203    0.392795   -0.335786  0.000477716
540    0.370079    0.386834  -0.0881839  0.000524506
550    0.365713    0.382584   -0.705773  0.000420673
560    0.361666    0.378644    0.837233  0.000359149
570     0.35853    0.375592   -0.213825  0.000412594
580    0.353414    0.370612   0.0325709  0.000403485
590     0.35046    0.367737    0.834821  0.000467089
600    0.344072    0.361519     1.32954  0.000481106
610    0.340838    0.358371     2.37849  0.000409614
620     0.33588    0.353544     1.26666  0.000466612
630    0.331506    0.349287     2.13113  0.000480895
640    0.326262    0.344182     1.51414  0.00048518
650    0.321802    0.339841     1.94605  0.000380109
660     0.31866    0.336782     2.81027  0.00034114
670    0.314979      0.3332     1.08007  0.000464849
680    0.309363    0.327733    0.833555  0.000492373
690    0.305132    0.323614     1.14247  0.000350256
700    0.302358    0.320914    0.709482  0.000354418
710    0.298044    0.316714   0.0924359  0.000395159
720    0.294455    0.313221     1.38965  0.000262362
730    0.292796    0.311607     1.69784  0.000299831
740    0.288458    0.307384      1.2033  0.000300336
750     0.28679     0.30576    0.275649  0.00026425
760    0.283173    0.302239    0.398998  0.000348644
770    0.279817    0.298972     1.26401  0.000305723
780    0.277058    0.296287     1.20209  0.000309785
790    0.273621    0.292941     2.18961  0.000364307
800    0.269772    0.289195     2.37608  0.00023358
810     0.26895    0.288394     0.95449  0.000122879
820    0.267315    0.286803    0.768502  0.000227852
830    0.264392    0.283958   -0.219736  0.000231662
840    0.262682    0.282293  -0.0967488  0.00027964
850      0.2588    0.278514     0.15025  0.000341147
860    0.255859    0.275651     1.57117  0.000338554
870    0.252029    0.271923    0.398033  0.000312072
880    0.249617    0.269576     0.39731  0.000231214
890    0.247404    0.267422     0.89167  0.000207894
900    0.245459    0.265529    0.953103  0.000136784
910    0.244669    0.264759     1.32176  0.000178103
920    0.241897    0.262061     1.01369  0.00022279
930    0.240213    0.260422   -0.160173  0.000223348
940     0.23743    0.257713   0.0256952  0.000227205
950    0.235669    0.255999  -0.0989206  0.000155786
960    0.234315     0.25468    0.703269  0.000152725
970    0.232614    0.253025   -0.346824  0.000183959
980    0.230635    0.251099    0.331714  0.000284069
990    0.226933    0.247495   0.0236445  0.000260508
1000    0.225425    0.246027     1.07362  0.000154374
1010    0.223845     0.24449    0.702244  0.000171965
1020    0.221986     0.24268    0.764461  0.000134338
1030    0.221159    0.241874    0.455003  0.000127779
1040     0.21943    0.240192      1.0105  0.000200713
1050    0.217144    0.237967    0.331353  0.000152607
1060    0.216378    0.237221    0.330508  0.000180796
1070    0.213528    0.234447     1.31953  0.000174141
1080    0.212895    0.233831      1.3803  0.000105109
1090    0.211426    0.232401     1.25725  0.000122698
1100    0.210441    0.231442    0.391399  0.000168311
1110     0.20806    0.229124     0.76241  0.000165123
1120    0.207139    0.228228     1.31754  0.000148106
1130    0.205098    0.226241      1.5649  0.000172859
1140    0.203682    0.224862     1.81124  0.000124279
1150    0.202612    0.223821     2.30505  0.000187666
1160    0.199928    0.221209    0.637372  0.000289752
1170    0.196817    0.218181    0.328941  0.000181487
1180    0.196299    0.217676     1.81075  0.000132807
1190    0.194161    0.215595     1.62495  0.000259768
1200    0.191103    0.212618    0.698805  0.000221539
1210     0.18973    0.211282     1.19244  0.000197438
1220    0.187155    0.208775    0.451264  0.000240211
1230    0.184926    0.206606     0.63701  0.000159431
1240    0.183966    0.205671    0.265275  0.000149247
1250    0.181941      0.2037    0.821974  0.000206245
1260    0.179841    0.201656   -0.413927  0.000210263
1270    0.177736    0.199607   -0.845889  0.000185873
1280    0.176124    0.198037   -0.475602  0.00026103
1290    0.172515    0.194525    0.574914  0.000290006
1300    0.170323    0.192391   -0.413384  0.000165965
1310    0.169196    0.191294    -1.21726  0.000173549
1320    0.166852    0.189013   -0.784577  0.000213189
1330    0.164932    0.187144    -1.34031  0.000156462
1340    0.163723    0.185967    -2.26766  0.000192681
1350    0.161079    0.183392    -1.03182  0.000185874
1360    0.160006    0.182348    -1.65031  0.000111004
1370    0.158859    0.181231   -0.847398  0.000143605
1380    0.157134    0.179552   -0.847217  0.000223068
1390    0.154397    0.176889   0.0797694  0.000212726
1400    0.152879    0.175411   -0.538724  9.42685e-05
1410    0.152512    0.175053   -0.168919  8.73245e-05
1420    0.151133    0.173711   -0.292448  0.000185083
1430     0.14881     0.17145    0.140117  0.000189079
1440    0.147351     0.17003    0.448067  0.000211317
1450    0.144584    0.167336    0.201188  0.000237134
1460    0.142608    0.165413    0.324536  0.000136032
1470    0.141863    0.164688     1.06529  0.000136424
1480     0.13988    0.162758    0.385729  0.000169437
1490    0.138474    0.161389    0.447343  0.000107905
1500    0.137722    0.160657    0.014838  0.000159287
1510    0.135289    0.158288   -0.294137  0.000181485
1520    0.134092    0.157124    0.200223  0.000108827
1530    0.133112     0.15617   -0.602811  8.34644e-05
1540    0.132423    0.155499   -0.849991  0.00011668
1550    0.130779    0.153898   -0.726582  0.00012057
1560    0.130011    0.153152   -0.911665  8.78289e-05
1570    0.129022    0.152188   -0.109657  0.000106422
1580    0.127883     0.15108    0.137041  0.000150877
1590    0.126004    0.149251    -1.15969  0.000180697
1600    0.124269    0.147562   -0.418511  0.000144205
1610     0.12312    0.146444    0.198534  0.000214835
1620    0.119972    0.143379   -0.233186  0.000285564
1630    0.117409    0.140884   -0.726884  0.000141741
1640    0.117138     0.14062   -0.418692  0.000153348
1650    0.114342    0.137899   -0.665692  0.000213006
1660    0.112877    0.136473   -0.171452  8.34174e-05
1670    0.112674    0.136275   -0.974968  9.48656e-05
1680     0.11098    0.134626    -1.16005  0.000177028
1690    0.109133    0.132829    -1.03682  0.000188644
1700    0.107207    0.130954    -1.03682  0.000162932
1710    0.105875    0.129657    -1.28406  0.000148394
1720    0.104239    0.128065    -1.46921  0.000137497
1730    0.103125     0.12698   -0.913415  0.00014161
1740    0.101407    0.125308    -1.96339  0.000141918
1750    0.100286    0.124217     -1.4079  0.000123501
1760   0.0989372    0.122904    -1.09946  0.000153902
1770   0.0972083    0.121221    -1.03767  0.000203251
1780   0.0948721    0.118947    -1.34622  0.000203711
1790   0.0931341    0.117255    -1.22275  0.00014379
1800   0.0919963    0.116148   -0.543669  0.000140394
1810   0.0903262    0.114522    -1.22329  0.000159645
1820   0.0888034     0.11304   -0.976416  0.000160044
1830   0.0871253    0.111406   -0.667139  0.000111065
1840   0.0865821    0.110877   -0.852645  3.5375e-05
1850   0.0864178    0.110717   -0.544394  0.000119226
1860   0.0841976    0.108556    -1.10019  0.00018799
1870    0.082658    0.107058   -0.853188  0.000161785
1880   0.0809619    0.105407   -0.853127  0.000169813
1890   0.0792617    0.103752     -0.4829  0.000166406
1900   0.0776338    0.102167   -0.544755  0.000170654
1910   0.0758487    0.100429  -0.0506963  0.000171066
1920   0.0742125   0.0988367   0.0729541  0.000202211
1930   0.0718044   0.0964927    0.196785  0.000187292
1940   0.0704667   0.0951905    0.134448  9.16038e-05
1950   0.0699724   0.0947094    0.566409  6.8761e-05
1960   0.0690914   0.0938519    0.751975  8.04834e-05
1970   0.0683627   0.0931425  -0.0516014  0.000111599
1980   0.0668595   0.0916793    0.381025  0.000146642
1990   0.0654298   0.0902877    -0.29854  0.000139269
2000   0.0640741    0.088968    0.380904  6.59458e-05
2010   0.0641109   0.0890038    0.812865  9.33761e-05
2020   0.0622066   0.0871501    0.319169  0.000140136
2030   0.0613082   0.0862757    0.318807  0.000132767
2040   0.0595512   0.0845654    0.504252  5.9001e-05
2050   0.0601282    0.085127     1.05956  5.92949e-05
2060   0.0583653   0.0834111     0.75101  0.000106183
2070   0.0580045   0.0830599    0.936516  4.39487e-05
2080   0.0574864   0.0825555    0.627662  5.18834e-05
2090   0.0569669   0.0820498    0.256891  3.63287e-05
2100   0.0567598   0.0818482    0.195277  3.64376e-05
2110   0.0562381   0.0813404     0.87448  0.000103352
2120   0.0546927   0.0798362     0.87454  0.000131107
2130    0.053616    0.078788    0.380481  9.59923e-05
2140   0.0527729   0.0779674    0.565987  2.12653e-05
2150   0.0531906    0.078374   -0.175915  8.85811e-05
2160   0.0510013   0.0762429   -0.917094  8.86379e-05
2170   0.0514179   0.0766484   -0.917757  7.7147e-05
2180   0.0494583    0.074741   -0.608541  0.000108931
2190   0.0492393   0.0745277   -0.237891  3.38513e-05
2200   0.0487813    0.074082   -0.732432  7.36924e-05
2210   0.0477654   0.0730931   -0.485675  9.37577e-05
2220   0.0469062   0.0722567   -0.114844  6.60984e-05
2230   0.0464434   0.0718063   -0.423699  9.02504e-05
2240   0.0451011   0.0704997   -0.176699  9.0426e-05
2250   0.0446349   0.0700459  -0.0535316  2.26654e-05
2260   0.0446478   0.0700584  0.00802226  -9.30913e-06
2270   0.0448211   0.0702271   -0.177363  6.2917e-05
2280   0.0433895   0.0688336   -0.115327  0.000115215
2290   0.0425168   0.0679841   0.0699379  5.51954e-05
2300   0.0422856    0.067759  0.00766059  8.35845e-05
2310   0.0408451   0.0663569  -0.0538934  8.37227e-05
2320   0.0406111   0.0661291    0.378129  0.000104219
2330   0.0387608   0.0643279    0.502081  0.000132696
2340   0.0379572   0.0635458  -0.0537126  4.40117e-05
2350   0.0378805   0.0634711    0.439984  5.63417e-05
2360   0.0368304   0.0624489  -0.0541949  8.89095e-05
2370   0.0361023   0.0617402   -0.301255  8.91654e-05
2380   0.0350471    0.060713   -0.116231  9.75192e-05
2390   0.0341519   0.0598417   -0.178026  8.9632e-05
2400   0.0332544   0.0589681    0.439442  6.12961e-05
2410    0.032926   0.0586484   -0.116654  4.10585e-05
2420   0.0324333   0.0581688   -0.178388  2.88753e-05
2430   0.0323485   0.0580863    0.377284  3.71762e-05
2440   0.0316897    0.057445    0.686441  4.13414e-05
2450   0.0315217   0.0572814    0.747934  5.79183e-05
2460   0.0305314   0.0563175    0.686501  9.50492e-05
2470   0.0296207    0.055431    0.501236  6.2347e-05
2480   0.0292844   0.0551037    0.809789  3.3671e-05
2490   0.0289473   0.0547755     1.55115  4.20239e-05
2500    0.028444   0.0542856    0.871705  0.000116584
2510   0.0266156   0.0525058    0.686682  0.000125091
2520   0.0259421   0.0518503    0.871705  3.42545e-05
2530   0.0259305    0.051839    0.315731  2.19313e-05
2540   0.0255035   0.0514233    0.809729  6.77101e-05
2550   0.0245763   0.0505208    0.871464  7.20215e-05
2560   0.0240631   0.0500212    0.809729  3.47136e-05
2570    0.023882    0.049845    0.809729  5.98844e-05
2580   0.0228654   0.0488554    0.871645  8.92577e-05
2590   0.0220969   0.0481073    0.686441  8.95145e-05
2600   0.0210751   0.0471127    0.686441  6.87781e-05
2610   0.0207213   0.0467683    0.315791  2.2829e-05
2620   0.0206185   0.0466683    0.748296  5.23346e-05
2630   0.0196746   0.0457495    0.500995  9.03065e-05
2640   0.0188124   0.0449102    0.500995  4.41903e-05
2650   0.0187908   0.0448892     1.18008  3.59266e-05
2660   0.0180939   0.0442107     0.80991  2.7524e-05
2670   0.0182404   0.0443533    0.809428  5.30506e-05
2680   0.0170328    0.043178    0.377224  9.97259e-05
2690   0.0162458   0.0424119     0.31561  8.30515e-05
2700   0.0153718   0.0415611     1.11846  9.17739e-05
2710   0.0144104   0.0406252    0.686079  7.0741e-05
2720    0.013957   0.0401839     1.11816  7.09704e-05
2730   0.0129909   0.0392436     1.42702  5.8328e-05
2740   0.0127904   0.0390484     1.48875  2.00796e-05
2750   0.0125894   0.0388527     1.48845  5.43708e-05
2760    0.011703   0.0379899     1.79748  8.44704e-05
2770   0.0108999   0.0372082     1.48863  8.04193e-05
2780   0.0100946   0.0364243     1.05613  4.62651e-05
2790  0.00997465   0.0363075     1.48791  5.50468e-05
2800  0.00899369   0.0353526     1.92065  3.79038e-05
2810  0.00921657   0.0355696     1.54988  -9.37385e-06
2820  0.00918117   0.0355351     1.61156  1.21883e-05
2830   0.0089728   0.0353323     1.48821  5.11557e-05
2840  0.00815806   0.0345392     1.30288  6.42556e-05
2850  0.00768769   0.0340814    0.808825  3.40838e-05
2860  0.00747638   0.0338757     1.24115  2.11617e-05
2870  0.00726446   0.0336694     1.54994  3.42757e-05
2880  0.00679087   0.0332084     1.92077  2.5639e-05
2890  0.00675168   0.0331702     1.48815  -1.3533e-05
2900  0.00706152   0.0334719     2.04388  -4.80586e-06
2910   0.0068478   0.0332638     1.67323  2.13999e-05
2920  0.00663353   0.0330552     1.36432  2.58414e-05
2930  0.00633097   0.0327607     1.73491  -1.79745e-05
2940  0.00699302   0.0334052     1.61107  2.15945e-05
2950  0.00589908   0.0323403     1.30246  4.35344e-05
2960  0.00612233   0.0325576      1.5494  4.0875e-06
2970  0.00581733   0.0322607     2.04364  2.61313e-05
2980   0.0055997   0.0320489     2.16699  3.0632e-05
2990  0.00520469   0.0316644     2.04322  2.18519e-05
3000  0.00516266   0.0316235     2.41417  -2.68162e-05
3010  0.00574101   0.0321865     2.72224  -2.15461e-07
3020  0.00516697   0.0316277     2.04346  1.30368e-05
3030  0.00548028   0.0319327     2.53697  4.23468e-06
3040  0.00508228   0.0315453     2.84655  8.65283e-06
3050  0.00530722   0.0317642      2.7844  1.31883e-05
3060  0.00481851   0.0312885     3.03127  -2.37837e-07
3070  0.00531198   0.0317688     2.66093  -9.1234e-06
3080  0.00500098   0.0314661     2.53734  6.7017e-05
3090  0.00397164   0.0304642     2.04346  6.26689e-05
3100   0.0037476   0.0302461     1.24024  1.79411e-05
3110  0.00361281   0.0301149     1.54886  3.15111e-05
3120  0.00311738   0.0296326     1.91957  3.60846e-05
3130  0.00289112   0.0294124     1.79622  -1.79869e-05
3140  0.00347712   0.0299828     2.10465  -3.15486e-05
3150  0.00352209   0.0300266      1.9813  2.7204e-05
3160  0.00293304   0.0294532     2.41356  8.62094e-05
3170  0.00179791   0.0283482     1.79604  0.000104593
3180  0.000841183    0.027417     2.04292  3.21199e-05
3190  0.00115551   0.0277229     2.10465  1.40839e-05
3200  0.000559506   0.0271428     2.35195  -4.19429e-06
3210  0.00123939   0.0278046     2.41351  -2.6962e-05
3220  0.00109875   0.0276677       1.981  1.86632e-05
3230  0.00086613   0.0274412     1.85741  9.54552e-06
3240  0.000907836   0.0274818     1.91908  -2.71269e-05
3250  0.00140867   0.0279694     1.98088  -4.18875e-06
3260  0.000991611   0.0275634     1.30119  6.47856e-05
3270  0.000112956   0.0267081     1.11629  5.11113e-05
3280  -3.06148e-05   0.0265684     1.05426  5.14504e-06
3290  1.00557e-05   0.0266079    0.745461  2.82966e-05
3300  -0.000596547   0.0260175    0.498763  1.90708e-05
3310  -0.000371361   0.0262367    0.992581  -3.18303e-05
3320   4.006e-05   0.0266371     1.23946  -8.687e-06
3330  -0.000197621   0.0264058     1.05426  -1.34124e-05
3340  0.000308308   0.0268983    0.806894  -3.20338e-05
3350  0.000443056   0.0270294      0.9924  1.91678e-05
3360  -7.50472e-05   0.0265251    0.621811  -8.86008e-06
3370  0.000620257   0.0272019    0.436305  -1.81559e-05
3380  0.00028807   0.0268786    0.683304  2.38944e-05
3390  0.000142369   0.0267367    0.745099  5.20512e-06
3400  0.000183968   0.0267772    0.127511  -1.8272e-05
3410  0.00050781   0.0270925  0.00386009  -1.83082e-05
3420  0.000550132   0.0271337   -0.243441  -8.95222e-06
3430  0.000686854   0.0272667   -0.057995  9.92114e-06
3440  0.000351709   0.0269405   0.0654744  1.46448e-05
3450  0.000393958   0.0269816    0.127149  -1.37062e-05
3460  0.000625833   0.0272073    0.374148  -1.37349e-05
3470  0.000668657    0.027249    0.312413  -1.85431e-05
3480  0.000996695   0.0275683  -0.0581156  -9.05938e-06
3490  0.000849844   0.0274254    0.127149  9.9419e-06
3500  0.000797857   0.0273748   -0.243621  9.98008e-06
3510  0.000650243   0.0272311  0.00337771  6.25983e-05
3520  -0.000454108   0.0261561  -0.0578142  4.83522e-05
3530  -0.000316802   0.0262898    -0.24332  -8.95557e-06
3540  -0.000274997   0.0263305    0.312413  6.15969e-07
3550  -0.000329122   0.0262778    0.435883  1.0232e-05
3560  -0.000479637   0.0261313    0.497497  -9.01651e-06
3570  -0.000148791   0.0264533    0.435581  6.44768e-07
3580  -0.000492532   0.0261187    0.497497  1.99278e-05
3590  -0.000547348   0.0260654    0.559292  -1.87152e-05
3600  -0.000118228   0.0264831    0.435641  -1.87364e-05
3610  -0.000172619   0.0264301    0.559231  -1.88331e-05
3620  0.000258433   0.0268497     0.68264  -1.88542e-05
3630  0.000204466   0.0267972     0.92976  -2.38231e-05
3640  0.000734896   0.0273135    0.744375  -9.21485e-06
3650  0.000388763   0.0269766     1.11508  -9.31292e-06
3660  0.000921154   0.0274948    0.559111  -4.37818e-06
3670  0.000476326   0.0270618     1.11502  5.33591e-06
3680  0.000814436   0.0273909    0.929519  -9.31637e-06
3690  0.000662654   0.0272432    0.620665  2.0123e-05
3700  0.000411976   0.0269992    0.682399  4.97337e-05
