Time   C(t)   
ps   
0           1           1  2.08371e-09   0.0428821
10    0.578656    0.870754    -1.49365   0.0219626
20    0.560747    0.865261   -0.258625  0.00104321
30    0.557792    0.864354    -1.33064  0.00108549
40    0.539037    0.858601    0.893607  0.00160072
50    0.525777    0.854534     0.48271  0.00047012
60    0.529635    0.855717    0.727463  0.000181448
70    0.522148    0.853421    0.480861  0.000498402
80    0.519667    0.852659   -0.260313  0.000393862
90    0.514271    0.851004   -0.754001  0.000963876
100    0.500389    0.846746   0.0710096  0.000872588
110    0.496819    0.845651     1.55279  0.000224741
120    0.495895    0.845367     2.29325  0.000132404
130    0.494171    0.844839    0.235304  -5.35324e-05
140    0.496965    0.845696     1.30418  0.000305945
150    0.488053    0.842962     1.13989  0.000332604
160    0.490313    0.843655    -1.24865  0.000453836
170    0.478976    0.840178     -1.4123  0.000507486
180    0.480163    0.840542    0.727865  -7.87541e-05
190    0.480551    0.840661     2.86844  2.80201e-05
200    0.479603     0.84037     3.19702  0.000349353
210    0.473564    0.838517     1.71476  0.000510691
220    0.469389    0.837237   0.0682749  0.000592294
230    0.461718    0.834884  -0.0134701  0.000606731
240    0.457255    0.833515     2.70414  -0.000131258
250    0.464343    0.835689   -0.262404  -0.000427011
260    0.465795    0.836134     2.04367  -9.14246e-05
270    0.466172     0.83625     1.05476  0.000609654
280    0.453602    0.832394  -0.0149978  0.000623743
290    0.453697    0.832423    0.888782  -3.65019e-05
300    0.454332    0.832618    -1.58191  0.000463988
310    0.444417    0.829577     1.87768  0.000532067
320     0.44369    0.829354    0.808001  0.000276099
330    0.438895    0.827883       1.139  0.000303613
340    0.437618    0.827491     1.21954  5.98967e-05
350    0.437697    0.827515     3.19485  0.000250478
360    0.432609    0.825955     0.97125  0.000414069
370    0.429416    0.824975    0.806072  0.000278761
380    0.427033    0.824244      2.5376  0.000374869
390    0.421918    0.822675      3.2774  0.000211665
400      0.4228    0.822946     2.53679  -0.000142956
410    0.424777    0.823552     2.78412  -3.37526e-05
420    0.423475    0.823153     1.38303  0.000486499
430    0.415047    0.820568     1.13715  0.000665364
440    0.410168    0.819071     2.20716  -3.30612e-05
450    0.415709    0.820771      2.5339  9.11236e-05
460    0.408345    0.818512     3.68854  0.000420734
470    0.407294    0.818189    0.805589  0.000132783
480     0.40569    0.817697     1.95854  0.000463833
490    0.398017    0.815344     1.13667  0.000285125
500    0.399987    0.815948    0.889264  -0.000432025
510    0.406658    0.817994     2.03989  -0.00012847
520    0.402557    0.816736      1.5466  0.000632001
530    0.394018    0.814117    0.805428  0.000175786
540    0.399041    0.815658     2.20402  -0.000377966
550    0.401577    0.816436     2.61435  0.000398748
560    0.391066    0.813212     1.71009  0.000704683
570    0.387483    0.812113   -0.595095  0.000358643
580    0.383893    0.811011    0.310133  0.000220117
590    0.383081    0.810762     2.53261  0.00015101
600    0.380873    0.810085     3.27539  -0.000225615
610    0.387593    0.812146     2.36775  -0.000309463
620    0.387062    0.811983     3.19035  0.000305021
630    0.381493    0.810275    0.390913  0.000333402
640    0.380394    0.809938   -0.432409  0.000376354
650    0.373966    0.807966  -0.0210293  0.000447093
660    0.371452    0.807195   0.0618409  -0.000183955
670    0.377645    0.809095      3.7661  -1.05798e-06
680    0.371473    0.807202    0.224286  0.000899403
690    0.359657    0.803577    0.639204  0.000407685
700     0.36332      0.8047     1.29509  8.48562e-05
710     0.35796    0.803056     1.79152  0.000296453
720    0.357391    0.802882     1.29662  0.000382175
730    0.350316    0.800712     1.13225  0.000340194
740    0.350587    0.800795     1.70913  -0.00022549
750    0.354826    0.802095     1.62433  -1.29908e-05
760    0.350847    0.800874     3.52022  0.000327387
770    0.348278    0.800087     2.69602  -1.30385e-05
780    0.351107    0.800954     1.37805  0.000271872
790    0.342841    0.798419    0.142943  0.000214842
800    0.346811    0.799636     1.21335  -0.00011206
810    0.345082    0.799106     1.21174  0.000130121
820    0.344208    0.798838      1.3766  0.000187609
830     0.34133    0.797955    0.718455  0.000474171
840    0.334725    0.795929     1.54258  0.000517958
850    0.330971    0.794778    -1.66976  0.000318438
860    0.328356    0.793975     1.13128  0.000405385
870    0.322863    0.792291   -0.433937  3.66271e-06
880    0.328283    0.793953     2.11825  -0.000125244
890    0.325368    0.793059     1.87101  7.56755e-05
900    0.326769    0.793489     2.11769  0.000580789
910    0.313752    0.789496     2.61267  3.84748e-06
920    0.326692    0.793465      1.7047  -0.000312687
930    0.320006    0.791414     2.20072  0.000437941
940    0.317933    0.790778     2.52835  -9.87053e-06
950    0.320203    0.791475     2.44652  -9.70513e-06
960    0.318128    0.790838     3.02324  0.000323968
970    0.313724    0.789487     1.21061  0.000251886
980     0.31309    0.789293     2.03458  7.80255e-05
990    0.312164    0.789008     1.95147  0.000369504
1000      0.3057    0.787026     2.28191  0.000515851
1010    0.301847    0.785844     1.45842  9.38043e-05
1020    0.303824     0.78645     3.59899  -0.000271007
1030    0.307267    0.787506     2.52851  -0.000212985
1040    0.308083    0.787757    0.880337  0.000255074
1050    0.302165    0.785942     1.04536  0.000328533
1060    0.301513    0.785741    0.550704  0.000270872
1070    0.296748     0.78428   -0.518898  0.00025658
1080    0.296381    0.784167     2.19799  5.14239e-05
1090    0.295719    0.783964     2.93981  2.20641e-05
1100     0.29594    0.784032    0.139325  0.00012536
1110    0.293212    0.783195    0.221069  0.000140254
1120    0.293135    0.783171     1.45746  -0.00014006
1130    0.296013    0.784054    -1.50877  0.000259233
1140     0.28795    0.781581    0.304824  0.000303642
1150     0.28994    0.782192   -0.355167  -0.000110282
1160    0.290156    0.782258   -0.272619  -5.126e-05
1170    0.290966    0.782506    -1.09747  -0.000110798
1180    0.292372    0.782937    -1.67314  0.000365114
1190    0.283663    0.780266     -3.8961  0.000618584
1200        0.28    0.779142   -0.191034  0.000217628
1210    0.279311    0.778931    -1.26104  0.000173549
1220    0.276529    0.778078   -0.438681  -0.000140069
1230    0.282112     0.77979    -2.74314  9.94876e-05
1240    0.274539    0.777467    0.304102  -3.58403e-05
1250    0.282829     0.78001   -0.439725  -0.000319994
1260    0.280939    0.779431    0.219864  0.000594625
1270    0.270936    0.776362    0.961599  8.44106e-05
1280    0.279251    0.778913   -0.357097  -0.000410971
1290    0.279156    0.778884    0.384158  3.96192e-05
1300    0.278459     0.77867    -2.82819  0.000854197
1310    0.262072    0.773643    -1.50836  0.000658952
1320    0.265279    0.774627    -2.16868  8.70809e-05
1330     0.26033    0.773109    -2.08645  0.000162485
1340     0.26203     0.77363    -1.59204  0.000269316
1350    0.254944    0.771457    -1.42726  0.000345293
1360    0.255124    0.771512   -0.274789  0.000194633
1370    0.251051    0.770263    -1.34359  -2.86698e-06
1380    0.255181    0.771529   -0.192481  8.89569e-05
1390    0.249272    0.769717   -0.604584  0.000423951
1400    0.246702    0.768928   0.0542819  4.3603e-05
1410      0.2484    0.769449   -0.521874  0.00024256
1420    0.241851     0.76744    0.384157  0.000487375
1430    0.238653    0.766459    -2.25066  0.00025898
1440    0.236671    0.765852    -1.67443  -0.000537545
1450    0.249404    0.769757    -1.01733  -0.000369067
1460    0.244053    0.768116    -1.42983  0.000643212
1470    0.236539    0.765811    -2.25171  0.00030611
1480    0.237931    0.766238    -2.66381  -7.77058e-05
1490    0.238093    0.766288   -0.441094  7.62284e-05
1500    0.236406     0.76577    -1.84049  0.000354232
1510    0.231009    0.764115   -0.439244  7.65979e-05
1520    0.234874      0.7653    -1.09964  6.18301e-05
1530    0.229772    0.763735     -1.9232  9.24543e-05
1540    0.233025    0.764733    -1.59365  -7.74823e-05
1550    0.231322    0.764211    -2.00446  0.000201619
1560    0.228993    0.763496    -3.23948  -4.67129e-05
1570    0.232256    0.764497    -1.67636  0.000140283
1580    0.226187    0.762635    -1.59276  0.000311512
1590    0.226026    0.762586    -3.15838  -4.62756e-05
1600    0.227112    0.762919   -0.935345  6.30155e-05
1610    0.224766    0.762199    -1.42959  0.000313222
1620    0.220848    0.760998   -0.852714  0.000674137
1630    0.211283    0.758064     -2.3341  0.000173648
1640    0.217375    0.759932    -1.51166  -6.0489e-05
1650    0.212493    0.758435     1.70076  0.000520261
1660     0.20697    0.756741    0.301528  -0.000170936
1670    0.215911    0.759483    -1.42951  -6.01687e-05
1680    0.208173     0.75711      -3.323  0.000333002
1690    0.209251    0.757441    -3.07624  2.67178e-06
1700     0.20812    0.757093    -2.17085  -0.000202978
1710    0.213311    0.758686     -2.8302  1.85274e-05
1720    0.207749     0.75698    -1.01822  0.000208157
1730    0.209148    0.757409    -1.59526  0.000161454
1740     0.20452    0.755989    -2.41874  0.000383893
1750     0.20147    0.755054    -1.92457  3.16724e-06
1760    0.204457     0.75597     -1.8417  -6.01493e-05
1770    0.202673    0.755423    -2.25468  -0.000267947
1780    0.209816    0.757614    -2.00832  5.12697e-05
1790    0.201647    0.755108    -3.65408  0.00049812
1800    0.199853    0.754558    -2.58408  -0.000124516
1810    0.204138    0.755872    -3.40772  -6.03631e-05
1820    0.201061    0.754928    -4.47941  0.000837564
1830    0.187386    0.750734    -3.16007  0.000485519
1840     0.19135    0.751949    -2.99586  -0.000235992
1850    0.192106    0.752181    -4.39654  0.000745615
1860    0.176438    0.747375    -2.33691  0.000278848
1870    0.186529    0.750471    -3.24334  -5.79052e-05
1880    0.177596     0.74773    -2.00808  0.000441837
1890    0.177693     0.74776    -3.65488  -0.000122961
1900    0.180055    0.748485    -1.67893  -0.000171705
1910    0.181127    0.748813   -0.773703  0.000136048
1920    0.177334     0.74765   -0.938641  -5.88663e-05
1930    0.182304    0.749175    -2.58577  6.61612e-06
1940    0.177202    0.747609    -1.76228  0.000641065
1950    0.169483    0.745242     -2.4197  0.000104443
1960    0.175113    0.746969    -2.58528  -0.000253578
1970    0.174554    0.746797    -4.23225  0.000219379
1980    0.170726    0.745623    -3.40844  6.98566e-06
1990    0.174415    0.746754    -3.57322  4.02518e-05
2000     0.16992    0.745376    -2.25549  0.000236721
2010     0.16968    0.745302    -3.32718  0.000385409
2020    0.162212    0.743011    -2.42051  0.000139187
2030    0.166896    0.744448    -2.50418  -0.000172569
2040    0.165664     0.74407    -1.51544  0.000271833
2050     0.16146    0.742781    -2.09256  0.000156762
2060    0.162528    0.743108    -1.84524  -0.000305362
2070    0.167567    0.744654    -4.15259  -0.000107241
2080    0.164673    0.743766    -2.01106   0.0002897
2090    0.161773    0.742877    -3.40965  0.000207438
2100    0.160525    0.742494    -3.98677  -0.000190649
2110    0.165586    0.744046    -2.83486  0.00022515
2120    0.156022    0.741112    -3.16385  0.000141508
2130    0.162756    0.743178    -4.07053  -4.05729e-05
2140    0.156833    0.741361    -3.90599  0.000158908
2150    0.159578    0.742203    -5.22324  0.000293626
2160     0.15096     0.73956    -2.99859  0.000544745
2170    0.148683    0.738861    -3.49308  0.000177786
2180    0.147405    0.738469    -4.23442  0.000480457
2190    0.139074    0.735914    -2.17455  -0.000241414
2200    0.152233     0.73995    -2.25911  -0.000644504
2210    0.151964    0.739868    -3.82441  0.000178583
2220    0.148661    0.738855    -3.49461  0.00051621
2230     0.14164    0.736701     -3.0813  -2.32399e-05
2240    0.149126    0.738997    -3.98878  6.22191e-05
2250    0.140395    0.736319    -3.82368  0.000298425
2260    0.143158    0.737167      -4.647  -0.000293557
2270    0.146266     0.73812    -4.48368  0.000130189
2280    0.140554    0.736368    -3.24817  9.59322e-05
2290    0.144348    0.737532    -5.47153  7.97845e-05
2300    0.138958    0.735878    -3.65963  1.12116e-05
2310    0.144123    0.737463    -3.24905  -0.000107562
2320    0.141109    0.736538     -5.4721  0.000216337
2330    0.139797    0.736136    -5.38995  -0.000227918
2340    0.145668    0.737936    -5.22557  0.000286047
2350    0.134076    0.734381    -4.73044  0.000422892
2360     0.13721    0.735342    -5.96635  0.000167245
2370    0.130731    0.733355    -4.23651  0.000373507
2380     0.12974    0.733051    -4.89546  -0.000124661
2390    0.133224    0.734119    -3.74234  -9.02392e-05
2400    0.131545    0.733604    -4.23707  0.000306401
2410    0.127096     0.73224    -3.57756  -0.000211722
2420    0.135779    0.734903    -4.64974  -0.000124865
2430    0.129593    0.733006    -4.07278  0.000671407
2440    0.122351    0.730784    -5.63591  8.28356e-05
2450    0.127937    0.732498    -3.66148  -7.25854e-05
2460    0.123803    0.731229    -4.40185  0.000344389
2470    0.121049    0.730385    -5.39027  -0.000142683
2480    0.126656    0.732105    -5.06104  -5.52721e-05
2490    0.122154    0.730724    -4.81307  0.000468283
2500    0.117291    0.729232    -5.22493  0.000171957
2510    0.118715    0.729669    -5.06112  -0.000160094
2520    0.120492    0.730214    -3.33225  -3.76675e-05
2530    0.119468      0.7299    -4.56815  0.000155294
2540    0.117387    0.729261    -4.15621  0.000208468
2550    0.115299    0.728621    -3.00358  0.000508545
2560    0.107216    0.726141    -3.74314  0.000174279
2570    0.111814    0.727552    -4.07439  -0.000160035
2580    0.110416    0.727123    -4.23884  0.00017527
2590    0.108308    0.726477    -3.90881  0.000388187
2600    0.102653    0.724742    -4.48585  0.000495429
2610   0.0983996    0.723437    -4.97889  0.000194983
2620    0.098753    0.723546     -4.4856  1.79544e-05
2630   0.0980405    0.723327    -4.73205  -0.000338327
2640     0.10552    0.725621    -4.81572  -3.54912e-05
2650   0.0987503    0.723545    -4.32163  0.000517104
2660   0.0951775    0.722449    -5.30973  0.000196829
2670   0.0948137    0.722337    -4.15838  3.6424e-05
2680    0.094449    0.722225    -5.39332  6.21751e-07
2690   0.0948013    0.722333    -2.51142  -1.72842e-05
2700   0.0947947    0.722331    -3.25267  7.25564e-05
2710   0.0933502    0.721888    -3.91178  -7.13807e-05
2720   0.0962223    0.722769    -4.65408  -7.12641e-05
2730   0.0947754    0.722325    -5.14608  0.000180982
2740   0.0926026    0.721659    -5.06514  7.29643e-05
2750   0.0933162    0.721878    -3.17077  0.000200093
2760   0.0886008    0.720431    -3.33538  0.000290924
2770   0.0874977    0.720093    -4.73575  0.000437251
2780   0.0798558    0.717749    -3.41753  0.000183479
2790   0.0838281    0.718967    -4.73566  -1.54674e-05
2800   0.0801651    0.717844    -2.51246  0.000330311
2810   0.0772219    0.716941     -2.9232  -0.000106872
2820   0.0823025    0.718499    -2.18396  -0.000197994
2830   0.0811817    0.718156     -1.6889  0.000606566
2840   0.0701712    0.714778    -2.18195  9.42316e-05
2850   0.0792971    0.717578    -3.08934  -1.42626e-05
2860   0.0704565    0.714866    -1.85376  0.000517599
2870   0.0689451    0.714402    -2.92457  -0.000253675
2880     0.07553    0.716422    -1.27817  -0.000438165
2890   0.0777084     0.71709    -1.11355  0.000206467
2900   0.0714006    0.715155    -2.51311  9.55045e-05
2910   0.0757983    0.716504    -1.69027  -1.45543e-05
2920   0.0716917    0.715245    -3.41994  0.000337093
2930   0.0690565    0.714436    -3.00776  0.000375256
2940   0.0641866    0.712942    -1.44262  -0.000125876
2950    0.071574    0.715208    -3.09095  5.00381e-06
2960   0.0640865    0.712912    -3.50185  0.000283667
2970   0.0659006    0.713468    -2.26667  0.000303836
2980   0.0580098    0.711048    -1.11347  -0.000126109
2990   0.0684228    0.714242    -2.59678  0.000249342
3000    0.053023    0.709518    -1.52517  0.000510789
3010    0.058207    0.711108     -1.3616  -6.84757e-05
3020   0.0543925    0.709938    -1.52565  0.000231591
3030   0.0535752    0.709687    -1.60933  0.000232504
3040   0.0497424    0.708512    -1.36112  -0.00038947
3050   0.0613646    0.712077   -0.045396  8.27188e-05
3060    0.048088    0.708004   -0.620748  0.000591856
3070   0.0495275    0.708446   -0.950061  -0.000182012
3080   0.0517283    0.709121    0.778568  0.000102063
3090   0.0474862     0.70782    0.943587  0.000329865
3100    0.045131    0.707097     -0.1269  -0.000182673
3110   0.0511397     0.70894   -0.128106  0.000160317
3120   0.0419246    0.706114    0.779533  0.000865623
3130   0.0338272     0.70363   -0.208163  0.000505241
3140   0.0318198    0.703014   -0.373743  -0.00012436
3150   0.0363144    0.704393   -0.374226  -0.000124282
3160   0.0343055    0.703776    -1.11532  -2.91275e-05
3170    0.036897    0.704571    0.941979  0.000105667
3180   0.0321921    0.703128   -0.292401  0.000163164
3190   0.0336337     0.70357   -0.210897  2.91565e-05
3200    0.031609    0.702949    0.612987  -2.88943e-05
3210   0.0342116    0.703748   -0.293687  0.000319343
3220   0.0252221     0.70099    0.118978  0.000145142
3230   0.0313088    0.702857     1.68275  -8.39429e-06
3240     0.02539    0.701042    0.447327  0.000126614
3250   0.0287765     0.70208     1.02348  0.000244387
3260   0.0205023    0.699542    0.365098  1.05123e-05
3270   0.0285662    0.702016   -0.211942  0.00016776
3280   0.0171471    0.698513     1.68267  0.000635702
3290   0.0158522    0.698116     1.60036  -0.000124661
3300   0.0196403    0.699278   0.0353838  -0.000379366
3310   0.0234395    0.700443     1.35223  7.07977e-05
3320   0.0182244    0.698844     0.61146  0.000404432
3330   0.0153509    0.697962   -0.212585  0.000464892
3340  0.00892651    0.695992     1.02429  0.00020978
3350   0.0111553    0.696675    0.858545  -6.53375e-05
3360   0.0102333    0.696392     1.76433  0.000290118
3370  0.00535292    0.694895    0.117773  0.00027092
3380  0.00481487     0.69473      1.0234  -4.52942e-05
3390   0.0062588    0.695173    0.611459  3.4199e-05
3400  0.00413089    0.694521     2.25858  0.000292654
3410  0.000405724    0.693378    0.200242  0.000313299
3420  -0.0021351    0.692598     2.34129  -0.000164505
3430  0.00369582    0.694387     1.35231  7.54515e-05
3440  -0.00364413    0.692136    0.364777   0.0004349
3450  -0.00500218    0.691719     1.68211  0.000396591
3460   -0.011576    0.689703     1.51797  -8.43704e-05
3470  -0.00331477    0.692237     1.59964  -0.000103607
3480  -0.00950382    0.690338     1.68251  0.000579575
3490  -0.0149063    0.688681    0.364857  -0.000104239
3500  -0.00741904    0.690978     3.74013  -0.000325745
3510  -0.00839138    0.690679      2.6698  -8.46522e-05
3520   -0.005726    0.691497     2.75171  -0.000226442
3530  -0.00386254    0.692069     1.76305  -0.000206913
3540  -0.00158773    0.692766     2.42159  0.000320848
3550  -0.0102795      0.6901     1.76353  -0.000167517
3560  0.00176261    0.693794     1.68026  0.000159783
3570  -0.0134752     0.68912     1.84632  0.000566508
3580  -0.00956755    0.690319     1.35191  -4.37106e-05
3590   -0.012601    0.689388     1.68154  9.89438e-05
3600  -0.0115464    0.689712     1.76337  -6.45408e-05
3610  -0.0113101    0.689784     1.18633  -3.13814e-06
3620  -0.0114837    0.689731     1.59803  1.7391e-05
3630   -0.011658    0.689677     3.16301  9.99057e-05
3640  -0.0134818    0.689118     2.33969  7.94154e-05
3650  -0.0132463     0.68919    0.939968  -0.000126905
3660  -0.0109437    0.689896     2.17475  0.000100663
3670  -0.0152595    0.688573     1.10346  0.000245611
3680  -0.0158559     0.68839     1.92798  5.97511e-05
3690  -0.0164546    0.688206     1.76241  -0.000439437
3700  -0.00706714    0.691086     2.09115  -0.000169159
3710  -0.0130714    0.689244     0.69224  5.87017e-05
3720  -0.00824117    0.690725     1.67977  0.000122485
3730  -0.0155211    0.688492     1.18649  1.71772e-05
3740  -0.00858472     0.69062     1.84431  -0.000359157
3750  -0.00833794    0.690696     2.09172  0.000101344
3760  -0.0106116    0.689998     1.26823  0.000248807
3770  -0.0133141    0.689169     3.16269  -0.00012981
3780  -0.00801538    0.690795     2.09075  -0.000214054
3790   -0.009033    0.690483     1.76136  0.000461336
3800  -0.0172421    0.687964     2.25649  -4.60132e-05
3810  -0.00811273    0.690765    0.690711  -0.00078712
3820  -0.0014997    0.692793     1.34885  0.000102432
3830  -0.0101614    0.690136     1.34901  0.000399419
3840  -0.00948808    0.690343     2.00772  0.000145715
3850  -0.0130757    0.689242     2.00724  0.000380677
3860  -0.0171016    0.688008      1.7612  0.000125254
3870  -0.0155807    0.688474     2.83144  -0.000302233
3880   -0.011057    0.689862     1.84278  -4.55274e-05
3890  -0.0146702    0.688753     1.76007  0.000490891
3900  -0.0208748     0.68685     1.67905  4.02615e-05
3910  -0.0154754    0.688506     3.40792  -0.000195847
3920  -0.0169578    0.688052     3.32489  -0.000110612
3930  -0.0132632    0.689185     3.98351  -2.40267e-05
3940  -0.0164773    0.688199     4.31339  -4.63726e-05
3950  -0.0123357    0.689469     2.99501  0.000474948
3960  -0.0259763    0.685285     2.66723  0.000475035
3970  -0.0218364    0.686555     2.09043  -0.000414662
3980   -0.017683    0.687829      2.2548  -4.52359e-05
3990  -0.0209317    0.686833     1.92501  -0.000111526
4000  -0.0154525    0.688513      1.5125  2.00919e-05
4010  -0.0213335    0.686709     3.24202  -4.65669e-05
4020  -0.0145212    0.688799     1.10056  -0.000221273
4030  -0.0169081    0.688067     3.15939  0.00037102
4040  -0.0219416    0.686523     1.34837  0.000482205
4050  -0.0265522    0.685109     1.59578  4.25057e-05
4060  -0.0227917    0.686262     3.15915  -0.000531405
4070  -0.0159241    0.688369     2.91222  8.70811e-05
4080  -0.0245333    0.685728     3.15995  0.000219155
4090  -0.0203072    0.687024     2.33615  -9.00637e-05
4100   -0.022732     0.68628     2.33566  0.000309627
4110  -0.0264997    0.685125      2.9955  0.000266004
4120  -0.0280521    0.684649     1.18279  0.000378773
4130  -0.0340752    0.682801     2.91262  -0.000112478
4140  -0.0258025    0.685339     2.74817  -0.000514967
4150  -0.0237759     0.68596     2.58259  0.00015614
4160  -0.0289253    0.684381     1.26502  0.000111108
4170   -0.025998    0.685279     2.41693  0.000247272
4180  -0.0338708    0.682864     2.00603  0.000269754
4190  -0.0313931    0.683624     2.17041  -8.99861e-05
4200  -0.0320711    0.683416     1.51178  -3.89293e-08
4210  -0.0313923    0.683624     2.08842  -6.79898e-05
4220  -0.0307113    0.683833      2.7464  0.000113556
4230  -0.0336634    0.682927     2.41733  0.000113653
4240  -0.0329843    0.683136     1.59288  0.000251149
4250  -0.0386864    0.681386     2.25288  4.59062e-05
4260  -0.0339024    0.682854     1.92276  6.9836e-05
4270  -0.0400831    0.680958     1.42915  0.000206641
4280  -0.0380353    0.681586     2.17049  2.44347e-05
4290  -0.0405718    0.680808      2.3351  9.31242e-05
4300  -0.0398978    0.681015     3.24146  0.000462337
4310  -0.0498186    0.677972     2.66425  0.000370699
4320  -0.0473117    0.678741     2.74745  -0.000482293
4330  -0.0401727    0.680931     2.91005  -0.00032147
4340  -0.0408823    0.680713     3.15762  -0.000439311
4350  -0.0313865    0.683626     2.08681  -0.000137806
4360  -0.0381262    0.681558     2.08689  0.00046564
4370  -0.0406993    0.680769     3.15738  2.45027e-05
4380  -0.0386163    0.681408     1.67519  1.61268e-06
4390  -0.0407316    0.680759     2.99333  0.000516191
4400  -0.0489401    0.678241     1.67503  0.000165778
4410  -0.0440471    0.679742     2.41725  -0.000443217
4420  -0.0400757     0.68096     2.41548  0.000119881
4430  -0.0464447    0.679007     3.07555  0.000119395
4440  -0.0424637    0.680228     1.51066  -0.000162639
4450  -0.0431919    0.680004     2.41604  -9.26871e-05
4460  -0.0406099    0.680796     1.17973  2.08896e-06
4470  -0.0432337    0.679992      2.9922  -0.000283307
4480  -0.0349438    0.682535     2.90925  -0.000449882
4490  -0.0342361    0.682752     2.74439  0.000262759
4500  -0.0401989    0.680923     3.07427  0.000692879
4510  -0.0480937    0.678501     2.08577  0.000384253
4520   -0.047884    0.678565     1.67439  0.000386429
4530  -0.0558222     0.67613     2.74544  5.09972e-05
4540  -0.0489039    0.678252     2.49731  -0.000260145
4550  -0.0506193    0.677726     1.50929  -2.08788e-05
4560  -0.0484864     0.67838      2.8267  0.000124205
4570  -0.0531034    0.676964     1.50969  0.000172403
4580  -0.0519344    0.677323     2.00354  5.24448e-05
4590  -0.0541523    0.676642     2.16904  2.80004e-05
4600  -0.0524944    0.677151     1.17965  -9.31047e-05
4610  -0.0522902    0.677214     1.34419  0.000101373
4620  -0.0545219    0.676529     2.16711  0.000516463
4630  -0.0626195    0.674045     3.07443  0.000248827
4640  -0.0594984    0.675002     1.26212  5.80996e-06
4650  -0.0627357    0.674009     1.83884  5.18821e-06
4660  -0.0596022    0.674971     1.26196  0.00020257
4670  -0.0667871    0.672767     2.57953  -4.4002e-05
4680  -0.0587222    0.675241     1.91994  -0.000240218
4690  -0.0619827     0.67424     1.50905  -0.000168022
4700  -0.0553617    0.676271     1.67254  -0.000142965
4710  -0.0591234    0.675117    0.684439  0.000352104
4720  -0.0624038    0.674111     1.34363  0.000403208
4730  -0.0671876    0.672644    0.273463  5.56801e-05
4740  -0.0635174     0.67377     1.67318  -0.000292828
4750   -0.061331     0.67444     0.60189  3.11095e-05
4760  -0.0641396    0.673579    0.684519  0.000331487
4770  -0.0679607    0.672407    0.932006  0.000433113
4780  -0.0728018    0.670922    0.849538  -0.000143956
4790  -0.0650816     0.67329     1.75444  7.90842e-06
4800    -0.07296    0.670873     1.75533  0.000183227
4810  -0.0687461    0.672166     1.75476  0.000185141
4820  -0.0766628    0.669737     1.83739  0.000184655
4830  -0.0724392    0.671033     2.57841  -0.0002453
4840  -0.0717568    0.671242     1.58991  0.000415187
4850   -0.080743    0.668486     2.16655  0.000364821
4860  -0.0790532    0.669004     1.50712  0.000316195
4870  -0.0870669    0.666546     2.98995  0.000495701
4880  -0.0889673    0.665963     1.91978  0.000216095
4890  -0.0913888     0.66522     2.41395  -0.000117277
4900  -0.0866217    0.666682     2.90724  1.17172e-05
4910  -0.0916231    0.665148     2.41379  0.000114061
4920  -0.0889029    0.665983     2.66055  0.000115247
4930  -0.0939281    0.664441     2.98995  0.000270356
4940  -0.0943101    0.664324      2.3314  0.00019404
4950  -0.0978089    0.663251     2.57809  0.000142509
4960  -0.0971602     0.66345     2.99019  -0.000299591
4970   -0.091817    0.665089     2.57801  9.13657e-05
4980  -0.0989876    0.662889     3.07234  0.000247544
4990  -0.0967679     0.66357     2.66007  0.000403722
