Time   Number   
ps   
0          11          53
10          11          57
20          11          50
30          11          50
40          11          55
50          11          57
60          11          56
70          11          53
80          12          53
90          11          55
100          11          51
110          10          55
120          12          53
130          11          51
140          10          52
150          12          56
160          12          57
170          10          57
180          11          59
190          12          53
200          12          55
210          11          54
220          11          57
230          11          58
240          11          54
250          11          54
260          12          54
270          12          56
280          10          55
290          12          51
300          11          53
310          10          54
320          10          55
330          11          54
340          11          50
350          11          53
360          11          54
370          12          53
380          11          57
390          11          53
400          10          55
410          13          56
420          11          53
430          11          55
440          12          56
450          12          52
460          10          57
470          12          54
480          12          51
490          13          57
500          11          54
510          11          57
520          12          54
530          13          54
540          13          53
550          12          53
560          11          59
570          11          56
580          13          59
590          14          52
600          12          56
610          12          56
620          13          58
630          12          57
640          13          58
650          13          54
660          12          56
670          13          56
680          12          56
690          13          54
700          12          57
710          10          53
720          12          57
730          10          55
740          12          56
750          12          55
760          14          59
770          13          55
780           9          57
790          11          54
800          11          55
810          12          56
820          11          57
830          11          54
840          13          53
850          10          53
860          12          53
870          11          55
880          12          54
890          12          52
900          12          56
910          11          56
920          13          58
930           9          54
940          12          52
950          13          59
960          11          53
970          11          54
980          11          55
990          12          55
1000          10          57
1010          12          58
1020          13          58
1030          12          55
1040          14          53
1050          12          53
1060          11          56
1070          12          54
1080          13          54
1090          12          52
1100          11          62
1110          12          55
1120          11          54
1130          13          58
1140          12          56
1150          11          58
1160          11          57
1170          12          56
1180          11          58
1190          12          55
1200          11          59
1210          11          54
1220          12          52
1230          11          61
1240          12          55
1250          10          60
1260          11          58
1270          11          54
1280          12          57
1290          13          56
1300          13          55
1310          13          54
1320          11          54
1330          12          53
1340          11          53
1350          13          54
1360          12          52
1370          10          56
1380          11          57
1390          12          51
1400          13          56
1410          13          57
1420          11          51
1430          13          55
1440          12          55
1450          12          56
1460          11          56
1470          10          54
1480          11          60
1490          10          56
1500          11          55
1510          11          54
1520          12          58
1530           9          57
1540          10          52
1550          11          55
1560          10          56
1570          12          57
1580          12          57
1590          10          57
1600          11          56
1610          11          54
1620          11          58
1630          12          55
1640          10          58
1650          11          59
1660          12          55
1670          10          58
1680          10          60
1690          13          57
1700          12          57
1710          12          60
1720          11          58
1730          11          58
1740          10          57
1750          12          57
1760           9          54
1770          13          60
1780          12          59
1790          10          58
1800          11          55
1810          11          60
1820          12          54
1830          10          59
1840          12          57
1850          11          59
1860          12          57
1870          10          60
1880          10          55
1890          13          55
1900          11          61
1910          11          58
1920          11          54
1930          12          53
1940          10          54
1950          11          60
1960          10          60
1970          11          54
1980          10          56
1990          12          57
2000          11          57
2010          11          56
2020          11          63
2030           9          59
2040          10          55
2050          10          56
2060          12          52
2070          14          54
2080          11          54
2090          11          59
2100          10          57
2110           9          59
2120          11          55
2130          11          58
2140          12          54
2150          11          56
2160           9          59
2170          10          54
2180          10          55
2190          12          53
2200          10          54
2210           9          56
2220          10          55
2230          14          53
2240          13          54
2250          11          56
2260          11          56
2270          12          53
2280          10          54
2290          11          57
2300          10          55
2310          11          54
2320          10          55
2330          11          54
2340          12          53
2350          11          59
2360          13          52
2370          11          56
2380          12          53
2390          11          59
2400          12          56
2410          11          56
2420          13          57
2430          12          54
2440          12          55
2450          12          54
2460          12          57
2470          11          55
2480          11          59
2490          11          58
2500          13          53
2510          12          55
2520          13          59
2530          12          57
2540          12          56
2550          14          59
2560          12          57
2570          14          62
2580          11          54
2590          13          60
2600          12          62
2610          13          57
2620          12          59
2630          11          63
2640          13          54
2650          13          60
2660          11          59
2670          12          56
2680           8          64
2690          12          58
2700          12          55
2710          11          59
2720          13          55
2730          12          55
2740          13          56
2750          12          61
2760          13          54
2770          13          53
2780          13          57
2790          11          56
2800          14          57
2810          12          56
2820          13          55
2830          12          54
2840          11          57
2850          11          60
2860          14          55
2870          11          57
2880          12          56
2890          14          56
2900          12          56
2910          12          58
2920          11          58
2930          12          55
2940          11          58
2950          13          55
2960          12          58
2970          14          55
2980          10          62
2990          13          55
3000          11          59
3010          12          54
3020          11          57
3030          12          58
3040          14          54
3050          10          59
3060          13          57
3070          11          53
3080          14          53
3090          12          60
3100          12          61
3110          12          59
3120          13          57
3130          12          59
3140          12          61
3150          14          56
3160          13          56
3170          11          57
3180          14          60
3190          12          59
3200          12          57
3210          12          55
3220          12          56
3230          13          54
3240          12          53
3250          12          54
3260          12          59
3270          13          58
3280          11          53
3290          14          58
3300          12          58
3310          13          54
3320          13          59
3330          12          58
3340          11          55
3350          14          58
3360          13          55
3370          12          55
3380          11          60
3390          12          58
3400          15          56
3410          12          57
3420          12          51
3430          13          54
3440          12          58
3450          11          54
3460          12          59
3470          12          60
3480          12          55
3490          12          57
3500          11          58
3510          12          56
3520          12          58
3530          12          58
3540          13          55
3550          11          60
3560          12          62
3570          12          58
3580          10          60
3590          12          54
3600          11          61
3610          13          59
3620          11          59
3630          11          57
3640          14          57
3650          11          54
3660          11          59
3670          11          60
3680          11          58
3690          13          56
3700          11          56
3710           9          60
3720          11          59
3730          11          60
3740          13          56
3750          12          57
3760          11          56
3770          11          57
3780          11          57
3790          12          54
3800          14          54
3810          12          56
3820          11          58
3830          11          57
3840          10          54
3850          12          56
3860          10          59
3870          12          56
3880          12          54
3890          13          54
3900          11          58
3910          14          51
3920          11          59
3930          14          55
3940          13          57
3950          11          57
3960          12          53
3970          11          54
3980          13          57
3990          11          54
4000          12          55
4010          12          58
4020          13          58
4030          11          58
4040          13          57
4050          11          56
4060          11          60
4070           9          61
4080          12          56
4090          14          55
4100          12          60
4110          13          56
4120          12          61
4130          11          55
4140          12          60
4150          12          58
4160          14          59
4170          12          52
4180          12          59
4190          11          56
4200          12          59
4210          12          55
4220          11          62
4230          11          60
4240          13          57
4250          11          58
4260          14          57
4270          12          58
4280          11          63
4290          12          58
4300          13          62
4310          12          54
4320          10          60
4330          12          61
4340          14          52
4350          16          58
4360          13          60
4370          12          59
4380          13          58
4390          14          57
4400          13          57
4410          13          58
4420          14          53
4430          13          58
4440          14          62
4450          13          53
4460          12          57
4470          13          55
4480          13          59
4490          12          58
4500          12          56
4510          11          60
4520          13          58
4530          13          55
4540          13          60
4550          13          56
4560          14          54
4570          13          57
4580          12          58
4590          11          62
4600          14          62
4610          14          58
4620          14          58
4630          12          56
4640          13          57
4650          12          57
4660          13          59
4670          12          54
4680          13          54
4690          13          55
4700          13          55
4710          13          56
4720          14          51
4730          10          65
4740          14          57
4750          13          54
4760          11          55
4770          14          56
4780          13          55
4790          11          63
4800          14          52
4810          12          53
4820          13          57
4830          12          58
4840          12          58
4850          14          54
4860          13          50
4870          13          50
4880          13          52
4890          13          53
4900          13          55
4910          13          54
4920          13          54
4930          12          56
4940          14          52
4950          14          54
4960          13          52
4970          12          56
4980          13          55
4990          14          55
5000          14          52
5010          13          55
5020          13          54
5030          13          58
5040          15          53
5050          13          59
5060          13          55
5070          13          53
5080          13          57
5090          13          53
5100          13          52
5110          14          55
5120          12          52
5130          12          56
5140          14          53
5150          13          51
5160          14          53
5170          13          56
5180          13          54
5190          14          52
5200          13          54
5210          13          51
5220          13          53
5230          14          53
5240          13          54
5250          13          54
5260          12          51
5270          13          54
5280          13          54
5290          13          52
5300          13          57
5310          11          53
5320          12          57
5330          12          53
5340          12          56
5350          12          57
5360          13          57
5370          13          54
5380          13          54
5390          13          54
5400          13          56
5410          12          53
5420          13          53
5430          11          55
5440          12          54
5450          14          56
5460          13          57
5470          13          55
5480          13          52
5490          12          55
5500          14          52
5510          14          55
5520          13          60
5530          13          53
5540          13          50
5550          14          55
5560          12          54
5570          12          54
5580          12          54
5590          13          56
5600          13          54
5610          13          53
5620          14          58
5630          13          53
5640          14          53
5650          12          57
5660          13          56
5670          13          56
5680          12          54
5690          13          51
5700          13          52
5710          13          54
5720          14          54
5730          15          55
5740          14          54
5750          13          53
5760          14          54
5770          14          56
5780          11          54
5790          13          56
5800          13          53
5810          11          59
5820          14          59
5830          14          52
5840          14          53
5850          15          56
5860          12          57
5870          14          59
5880          13          50
5890          12          51
5900          13          52
5910          12          55
5920          14          55
5930          14          55
5940          13          53
5950          13          52
5960          13          53
5970          12          53
5980          13          57
5990          13          54
6000          13          56
6010          12          62
6020          13          57
6030          13          57
6040          13          55
6050          11          61
6060          15          57
6070          14          58
6080          12          58
6090          13          52
6100          13          59
6110          11          57
6120          11          57
6130          13          56
6140          13          53
6150          14          51
6160          14          56
6170          14          53
6180          14          55
6190          11          64
6200          13          54
6210          12          52
6220          13          55
6230          13          55
6240          13          55
6250          11          55
6260          12          57
6270          12          54
6280          12          58
6290          14          60
6300          12          57
6310          13          55
6320          13          56
6330          13          52
6340          13          54
6350          13          50
6360          12          60
6370          15          53
6380          13          56
6390          13          54
6400          14          56
6410          12          57
6420          12          56
6430          13          61
6440          15          56
6450          14          56
6460          13          59
6470          13          58
6480          13          54
6490          11          56
6500          14          53
6510          12          61
6520          13          55
6530          13          53
6540          13          51
6550          13          54
6560          13          57
6570          13          53
6580          15          52
6590          10          58
6600          12          55
6610          13          54
6620          11          56
6630          13          56
6640          12          59
6650          12          59
6660          14          58
6670          13          58
6680          12          60
6690          16          56
6700          16          57
6710          15          57
6720          13          58
6730          12          57
6740          12          58
6750          15          55
6760          15          55
6770          14          59
6780          14          54
6790          13          55
6800          15          54
6810          13          56
6820          14          59
6830          13          53
6840          13          56
6850          15          54
6860          13          53
6870          14          53
6880          14          54
6890          16          55
6900          15          53
6910          13          51
6920          14          53
6930          15          57
6940          14          58
6950          16          55
6960          16          56
6970          16          57
6980          14          57
6990          15          51
7000          15          56
7010          15          59
7020          12          52
7030          15          54
7040          14          54
7050          13          55
7060          15          52
7070          13          53
7080          14          62
7090          14          57
7100          14          58
7110          14          57
7120          14          58
7130          15          58
7140          16          52
7150          15          53
7160          14          57
7170          14          56
7180          16          55
7190          15          51
7200          15          56
7210          16          54
7220          15          55
7230          15          51
7240          13          51
7250          15          52
7260          14          58
7270          13          57
7280          13          58
7290          14          60
7300          13          56
7310          14          58
7320          16          55
7330          13          58
7340          14          64
7350          14          55
7360          13          57
7370          15          52
7380          13          57
7390          15          62
7400          14          57
7410          15          59
7420          14          53
7430          14          54
7440          15          57
7450          14          53
7460          14          54
7470          14          54
7480          15          57
7490          16          56
7500          13          59
7510          14          59
7520          17          55
7530          15          60
7540          13          54
7550          15          59
7560          17          59
7570          13          58
7580          13          55
7590          15          57
7600          15          61
7610          15          65
7620          14          59
7630          14          55
7640          15          56
7650          14          55
7660          14          52
7670          16          56
7680          14          62
7690          16          60
7700          17          56
7710          12          60
7720          16          54
7730          14          54
7740          15          61
7750          14          59
7760          14          55
7770          15          57
7780          14          59
7790          15          59
7800          13          58
7810          14          57
7820          14          53
7830          15          58
7840          13          58
7850          14          58
7860          13          55
7870          12          59
7880          13          57
7890          15          56
7900          14          59
7910          13          61
7920          13          56
7930          12          57
7940          15          60
7950          13          53
7960          12          58
7970          17          56
7980          14          57
7990          13          56
8000          13          53
8010          14          58
8020          13          54
8030          13          52
8040          14          60
8050          13          59
8060          13          55
8070          12          58
8080          13          59
8090          13          60
8100          15          59
8110          12          56
8120          12          57
8130          13          54
8140          11          56
8150          12          56
8160          13          60
8170          12          55
8180          14          54
8190          12          53
8200          12          64
8210          14          59
8220          12          59
8230          12          60
8240          13          56
8250          12          58
8260          11          55
8270          13          53
8280          12          59
8290          12          54
8300          13          57
8310          12          60
8320          12          57
8330          11          55
8340          12          54
8350          15          56
8360          12          58
8370          14          55
8380          13          56
8390          12          55
8400          10          60
8410          12          58
8420          13          55
8430          13          57
8440          12          51
8450          12          58
8460          11          59
8470          12          55
8480          11          57
8490          12          61
8500          13          60
8510          12          53
8520          12          56
8530          12          63
8540          13          58
8550          15          57
8560          14          56
8570          11          58
8580          14          59
8590          13          51
8600          12          61
8610          14          59
8620          13          57
8630          12          58
8640          13          59
8650          12          60
8660          13          55
8670          13          60
8680          12          58
8690          13          57
8700          14          56
8710          13          58
8720          14          57
8730          13          59
8740          13          60
8750          13          56
8760          12          62
8770          12          61
8780          13          60
8790          13          59
8800          12          62
8810          13          60
8820          14          63
8830          12          61
8840          14          60
8850          12          56
8860          15          55
8870          12          61
8880          12          57
8890          10          58
8900          10          60
8910          11          62
8920          13          62
8930          14          62
8940          14          57
8950          15          63
8960          13          62
8970          12          62
8980          12          54
8990          13          56
9000          14          59
9010          13          58
9020          10          56
9030          14          57
9040          12          58
9050          12          51
9060          13          58
9070          12          57
9080          12          57
9090          14          60
9100          14          62
9110          14          56
9120          15          57
9130          15          57
9140          16          57
9150          14          58
9160          12          57
9170          12          56
9180          11          58
9190          15          62
9200          14          57
9210          13          57
9220          13          60
9230          12          56
9240          11          56
9250          14          58
9260          12          57
9270          11          60
9280          12          56
9290          11          57
9300          15          56
9310          14          62
9320          13          55
9330          12          59
9340          15          58
9350          12          61
9360          14          56
9370          14          54
9380          13          58
9390          11          59
9400          11          58
9410          12          60
9420          11          58
9430          11          57
9440          14          54
9450          11          57
9460          12          59
9470          11          55
9480          12          56
9490          11          59
9500          12          58
9510          11          60
9520          11          58
9530          12          60
9540          10          60
9550          13          59
9560          12          59
9570          10          65
9580          12          63
9590          11          60
9600          12          56
9610          13          64
9620          11          59
9630          12          60
9640          10          58
9650          11          58
9660          13          55
9670          11          57
9680          12          56
9690          12          57
9700          11          55
9710          13          59
9720          12          61
9730          11          61
9740          10          60
9750          12          57
9760          12          57
9770          12          57
9780          12          55
9790          11          55
9800          12          55
9810          12          55
9820          12          59
9830          10          56
9840          11          57
9850          11          60
9860          11          56
9870          11          52
9880          11          55
9890          13          57
9900          11          60
9910          11          59
9920          10          57
9930          12          61
9940          11          56
9950          11          57
9960          13          57
9970          10          58
9980          11          56
9990          11          54
10000          11          53
