Time   C(t)   
ps   
0           1           1  5.35261e-10   0.0406169
10    0.596426    0.881706    0.245548   0.0212425
20    0.575149    0.875469     1.47392  0.00186815
30    0.559063    0.870754     0.15358  0.00159488
40    0.543252     0.86612    0.797955  0.00129486
50    0.533166    0.863163     0.46011  0.00110218
60    0.521208    0.859658    0.276384  0.00108371
70    0.511492     0.85681    0.276144  0.000988048
80    0.501447    0.853866     0.61297  0.000845522
90    0.494582    0.851854     1.28803  0.00103856
100    0.480676    0.847778    0.735864  0.000828266
110    0.478016    0.846998    0.828011  0.000535485
120    0.469967    0.844638    0.490226  0.000847229
130    0.461072    0.842031     2.02503  0.000807343
140     0.45382    0.839906     0.45969  0.000435257
150    0.452367     0.83948    0.520252  0.000207761
160    0.449664    0.838688    0.151241  0.000795975
170    0.436447    0.834813  -0.00113945  0.000760633
180    0.434452    0.834229    0.367092  0.000303994
190    0.430367    0.833031   -0.339614  0.000554977
200    0.423352    0.830975    0.213093  0.000561211
210    0.419143    0.829741   -0.769668  0.000379519
220    0.415762     0.82875   -0.156008  0.000395979
230    0.411223     0.82742    0.611021  0.000318168
240    0.409398    0.826885     0.54923  0.00052357
250    0.400752    0.824351    0.427655  0.000424479
260    0.400909    0.824397   0.0585236  0.00013667
270    0.398019    0.823549     1.50118  0.000715601
280    0.386597    0.820201    0.303802  0.000679803
290    0.384422    0.819564    0.825373  0.000259838
300      0.3814    0.818678   -0.648063  0.000429226
310    0.375838    0.817048   -0.986149  0.000493343
320    0.371533    0.815786    0.180518  0.000272344
330    0.370391    0.815451   -0.188853  0.000416081
340    0.363212    0.813347    0.824294  0.000443116
350    0.361529    0.812854   0.0877406  0.000407132
360    0.355069     0.81096   0.0268182  0.000312109
370    0.355287    0.811024    0.424866  0.000143005
380    0.352209    0.810122    0.240421  0.000366625
390    0.347954    0.808875    0.517074  0.000378035
400    0.344648    0.807906   -0.557924  0.000421551
410    0.339523    0.806403    0.823604  0.000416975
420    0.336309    0.805461    -1.14153  0.000327085
430    0.332981    0.804486  -0.0671283  0.000317051
440    0.329968    0.803603   0.0860317  0.000430204
450    0.324377    0.801964    0.423667  0.00087593
460    0.312449    0.798468   -0.465537  0.000662792
470    0.311121    0.798078   -0.864754  4.69238e-05
480    0.311511    0.798192   0.0545363  0.000138542
490    0.308351    0.797266    0.914583  0.000628547
500     0.29894    0.794508    -0.28244  0.000408606
510    0.300178    0.794871   0.0857317  1.08093e-05
520    0.298723    0.794444    0.147074  0.000469694
530    0.290785    0.792117    0.453784  0.000529812
540    0.288127    0.791338    0.668795  0.00045545
550    0.281676    0.789447    0.178029  0.000353338
560     0.28106    0.789267     -0.1294  0.000132003
570    0.279036    0.788673    -0.28289  0.000333002
580      0.2744    0.787315   -0.589869  0.000540163
590    0.268232    0.785507     1.12983  0.000149542
600     0.27141    0.786438    0.576258  0.000210252
610    0.264027    0.784274    0.269488  0.000155613
620    0.268297    0.785526  -0.0384813  3.64393e-05
630    0.263298    0.784061    0.514346  0.000391211
640    0.260473    0.783233    0.421928  0.000348416
650     0.25633    0.782018    0.545182  0.000206693
660    0.256339    0.782021    0.913593  0.000196455
670    0.252401    0.780866    0.605684  0.000553311
680    0.245273    0.778777   -0.621725  0.000274174
690    0.246918    0.779259   0.0221412  0.000137768
700    0.242518    0.777969   -0.162005  0.000346901
710     0.23998    0.777225   -0.898408  0.000353246
720    0.235453    0.775899    -0.49991  0.000398054
730    0.232018    0.774892    -0.49964  0.000410061
740    0.227252    0.773495   -0.991425  0.000543549
750    0.221147    0.771706    -1.02142  0.000190385
760    0.223444    0.772379    0.298165  0.000135887
770     0.21843    0.770909   -0.468474  0.00019679
780    0.219508    0.771225    0.697112  6.98194e-05
790    0.217033      0.7705    0.420639  0.000281047
800    0.213887    0.769577      1.2494  0.000264922
810    0.211735    0.768947     1.09573  0.000438225
820    0.205123    0.767008    0.697383  0.000344106
830    0.204853    0.766929     1.37205  6.04957e-05
840    0.203913    0.766654   0.0519577  0.000323272
850    0.198387    0.765034   -0.224096  0.000223022
860    0.199452    0.765346    0.450576  0.000173527
870    0.194917    0.764017    0.942001  0.000352941
880    0.192393    0.763277    0.665827  0.000213475
890    0.190647    0.762765      1.0031  0.000354578
900    0.185302    0.761199     1.89372  0.00029883
910    0.184671    0.761014     1.92413  -1.00046e-05
920    0.185502    0.761257     2.16953  0.000153578
930    0.181599    0.760113     1.95482  0.000424591
940     0.17701    0.758768      2.2007  0.000250281
950    0.176594    0.758646     1.49471  0.000109655
960    0.174817    0.758125     1.89372  -2.6089e-05
970    0.177115    0.758799     1.58581  8.74393e-05
980    0.173068    0.757613     1.52473  0.000439221
990    0.168331    0.756224    0.512367  0.000178815
1000    0.169492    0.756564     1.09495  0.000134006
1010    0.165651    0.755439    0.664688  0.000145373
1020    0.166585    0.755712    0.695343  -7.9304e-06
1030    0.165809    0.755485    0.817428  0.000134636
1040    0.163892    0.754923   -0.686784  7.77096e-05
1050    0.164255    0.755029    0.571731  0.000449907
1060    0.154894    0.752285   -0.379145  0.000255649
1070    0.159142    0.753531    0.325823  -6.41048e-05
1080    0.156176    0.752661   -0.687413  0.000176404
1090    0.155614    0.752497   0.0186634  6.7725e-05
1100    0.154821    0.752264    0.263971  0.000332525
1110    0.148964    0.750547   -0.226794  0.000350287
1120    0.147815    0.750211    0.848084  1.11133e-05
1130    0.148741    0.750482     1.30798  7.47912e-05
1140     0.14632    0.749772     1.21611  0.000201914
1150    0.144703    0.749298     1.03154  7.5087e-05
1160    0.144818    0.749332    0.816019  8.11964e-05
1170    0.143079    0.748822    0.847244  3.48739e-05
1180     0.14412    0.749128      1.0616  -3.45789e-05
1190    0.143771    0.749025    0.447458  8.73275e-05
1200    0.142374    0.748616    0.631903  3.51079e-05
1210    0.143069    0.748819    0.109372  0.000116885
1220    0.140036     0.74793    0.692675  0.000414332
1230    0.134782     0.74639    0.109852  0.000164061
1240    0.136755    0.746969    0.477604  -6.3099e-05
1250    0.136044     0.74676    0.324294  1.26891e-05
1260    0.136501    0.746894  -0.0757035  9.4831e-05
1270    0.134147    0.746204     0.81479  0.000306059
1280     0.13038      0.7451    0.906847  0.000218569
1290    0.129776    0.744923  -0.0445379  3.69795e-05
1300     0.12964    0.744883    0.231067  0.000184233
1310    0.126091    0.743843    0.170444  0.000331813
1320    0.123004    0.742938  -0.0135514  5.53612e-05
1330    0.124984    0.743518   -0.291045  -1.51291e-05
1340    0.123307    0.743027    0.139278  0.000215224
1350     0.12068    0.742257     1.52069  0.000150529
1360    0.120296    0.742144    0.200441  2.83644e-06
1370    0.120623     0.74224   -0.168361  0.000186846
1380    0.116559    0.741049   -0.567398  0.000418714
1390    0.112249    0.739785   -0.228863  -4.41875e-05
1400    0.117443    0.741308    0.322794  2.76856e-05
1410    0.111695    0.739623     0.66136  0.000390733
1420    0.109628    0.739017    0.292768  0.000105396
1430    0.109587    0.739005    -1.39643  -7.77803e-06
1440    0.109784    0.739063   -0.321551  0.000177655
1450    0.106034    0.737964    0.138889  -6.76945e-05
1460    0.111138     0.73946    0.230107  4.61601e-06
1470    0.105941    0.737937    0.384407  5.20773e-05
1480    0.110096    0.739155     1.24319  -0.000139558
1490    0.108733    0.738755    0.352521  0.000196698
1500    0.106162    0.738001   0.0456014  0.000112777
1510    0.106477    0.738094    0.321685  4.0802e-05
1520    0.105346    0.737762    0.444909  0.000191798
1530    0.102641    0.736969    0.106913  0.000421896
1540   0.0969083    0.735289    0.414583  0.000271348
1550   0.0972142    0.735379     0.81335  -2.64496e-07
1560   0.0969136    0.735291     1.05842  -4.27946e-05
1570   0.0980701    0.735629   -0.231291  0.000139304
1580   0.0941276    0.734474    -0.32335  0.000157706
1590   0.0949159    0.734705    0.198761  7.92548e-05
1600   0.0925425    0.734009   -0.599043  0.000109625
1610   0.0927234    0.734062   -0.999221  0.000189378
1620   0.0887549    0.732899    0.229717  0.000140747
1630   0.0899085    0.733237   -0.200696  -1.7691e-05
1640   0.0891087    0.733003   -0.630629  -3.62571e-05
1650   0.0906336     0.73345   -0.937998  -6.67796e-05
1660   0.0904443    0.733394   -0.906533  0.000307401
1670   0.0844856    0.731648   -0.262008  0.000227913
1680   0.0858861    0.732058   -0.293353  -7.87973e-05
1690   0.0860616     0.73211   -0.262577  3.18136e-05
1700   0.0852498    0.731872     0.44314  0.000167599
1710   0.0827096    0.731127   0.0442823  0.000285196
1720   0.0795459      0.7302   -0.139924  0.000248776
1730    0.077734    0.729669     0.13628  0.000274194
1740    0.074062    0.728592   -0.631199  7.63673e-05
1750   0.0762067    0.729221    0.105264  0.000145272
1760   0.0711565    0.727741   -0.569587  0.000406137
1770    0.068084     0.72684   -0.108938  -0.000102966
1780   0.0732159    0.728344    0.196933  -5.28499e-05
1790    0.069141     0.72715   -0.232671  0.000202169
1800   0.0691725    0.727159   -0.416936  0.000109228
1810   0.0669564     0.72651   0.0433528  -3.18214e-06
1820   0.0692361    0.727178    -0.54013  0.000172408
1830   0.0635082    0.725499    -1.00027  0.000247505
1840    0.064286    0.725727   -0.969674  0.000110418
1850   0.0612999    0.724852    -1.09233  0.000261302
1860     0.05906    0.724195   -0.600453  0.000211675
1870   0.0570664    0.723611  -0.0476255  -0.000109015
1880   0.0612403    0.724834   -0.816633  -9.6265e-05
1890   0.0589917    0.724175   -0.785288  0.000111435
1900   0.0590116    0.724181    0.043293  2.96075e-05
1910   0.0583995    0.724001   -0.447623  4.23573e-05
1920   0.0581644    0.723933   -0.478728  -0.000134942
1930   0.0610983    0.724792   -0.202704  0.000194828
1940   0.0542679     0.72279   -0.969824  0.00013118
1950   0.0584748    0.724023   -0.663594  -1.40617e-05
1960   0.0545491    0.722873   -0.141272   0.0002083
1970   0.0543088    0.722802    0.103976  0.000151627
1980   0.0515166    0.721984    0.135051  4.96678e-05
1990   0.0533154    0.722511   0.0733799  -3.9419e-05
2000    0.052305    0.722215    0.165228  8.83648e-05
2010   0.0515481    0.721993     0.53334  -1.39294e-05
2020   0.0525836    0.722297   0.0105083  0.000210689
2030   0.0473343    0.720758    0.594472  0.000108039
2040   0.0504228    0.721663    0.318028  3.80769e-05
2050   0.0465728    0.720535    0.164538  0.000147244
2060   0.0474779      0.7208   -0.296441  1.2506e-05
2070   0.0463227    0.720461   -0.265545  -4.57635e-05
2080   0.0483932    0.721068   -0.941056  7.72111e-05
2090   0.0447785    0.720009    0.195044  0.000387764
2100   0.0406379    0.718795   -0.295991  4.52043e-05
2110   0.0438744    0.719744   -0.419815  -0.000200816
2120   0.0446542    0.719972   -0.266055  0.000194848
2130   0.0399774    0.718602    0.501933  0.00028608
2140   0.0389326    0.718295    0.778108  6.89365e-06
2150   0.0398395    0.718561    0.409306  -8.42776e-05
2160   0.0406182    0.718789     1.29905  0.000163695
2170   0.0365656    0.717602    0.501424  0.000275018
2180   0.0351178    0.717177   -0.634467  0.000223551
2190   0.0320946    0.716291    0.440232  6.00792e-05
2200   0.0339162    0.716825   -0.020417  -0.000188971
2210    0.035874    0.717399    0.347575  4.72173e-05
2220   0.0329719    0.716548     1.66791  0.000152348
2230   0.0328271    0.716506    0.746762  -3.16715e-05
2240   0.0336053    0.716734     1.05314  0.000225676
2250   0.0283136    0.715183    0.501124  0.000133427
2260   0.0309368    0.715952     0.83852  0.000173985
2270   0.0248339    0.714163  -0.0513131  0.000213587
2280    0.026665      0.7147     2.03566  -7.72316e-05
2290   0.0263785    0.714616     1.36042  -4.50416e-06
2300   0.0267551    0.714726     1.20687  4.21032e-05
2310   0.0255364    0.714369     1.36036  0.00010869
2320   0.0245813    0.714089     1.08416  0.000109005
2330   0.0233563     0.71373     1.85134  0.000176059
2340   0.0210601    0.713057     1.17562  0.000249976
2350   0.0183568    0.712264     1.51379  0.000156832
2360   0.0179235    0.712137     1.69797  -0.000305114
2370   0.0244591    0.714053    0.960574  -9.73427e-05
2380   0.0198704    0.712708     1.32917  0.000439323
2390   0.0156726    0.711477     1.39063  0.000103982
2400   0.0177907    0.712098     2.18828  -3.68568e-05
2410   0.0164098    0.711694     1.26695  9.78612e-05
2420   0.0158335    0.711525      1.3286  3.06242e-05
2430   0.0157973    0.711514     1.02159  0.000165932
2440   0.0125148    0.710552     1.45182  0.000172978
2450   0.0123377      0.7105     1.88139  5.15792e-05
2460   0.0114833    0.710249     1.42059  0.000139924
2470  0.00953926     0.70968    0.253808  -7.73841e-05
2480   0.0130309    0.710703     1.14355  -7.04296e-05
2490   0.0109478    0.710093     1.17469  0.000160848
2500  0.00981398     0.70976     1.20483  9.99049e-05
2510  0.00894975    0.709507     2.27917  0.000380576
2520  0.00220246    0.707529       1.482  0.000168901
2530  0.00557174    0.708517     2.18777  -0.000179668
2540  0.00579582    0.708582     1.88043  -0.000132247
2550  0.00821668    0.709292     2.00291  0.000108171
2560  0.00363241    0.707948     2.58645  0.000101044
2570  0.00619581      0.7087     2.15628  1.2211e-05
2580  0.00338818    0.707877     3.13868  0.000453669
2590  -0.00287758     0.70604     1.29749  0.00022654
2600  -0.00114261    0.706549     1.81864  -0.000132197
2610  -0.000233647    0.706815     2.00309  0.000234704
2620  -0.0058367    0.705173     2.43344  0.000103057
2630  -0.00229478    0.706211     2.03395  -0.000222666
2640  -0.00138338    0.706478    0.437084  -5.64087e-05
2650  -0.00116661    0.706542     2.09482  0.000145475
2660  -0.00429288    0.705625     1.54229  0.00025022
2670   -0.006171    0.705075     2.73958  -3.54232e-05
2680  -0.00358442    0.705833     3.01528  -0.000182129
2690  -0.00252843    0.706142     2.73922  0.000174523
2700  -0.00707488     0.70481     3.01584  0.000125547
2710  -0.00503937    0.705406     2.70871  -0.000119548
2720  -0.00468392    0.705511     2.03278  0.000273971
2730  -0.0105188      0.7038     2.58606  0.000189754
2740   -0.008479    0.704398     3.35336  -4.90374e-05
2750  -0.00953804    0.704088     1.66467  0.000113112
2760  -0.0107412    0.703735     2.03308  5.68155e-05
2770  -0.0106743    0.703755      1.1425  4.28759e-05
2780  -0.0115988    0.703484     2.33979  -0.000127337
2790  -0.00812762    0.704501     2.06326  5.73645e-05
2800  -0.0127461    0.703147     2.55439  2.85094e-05
2810  -0.0086978    0.704334     2.46155  -4.21134e-05
2820  -0.0119038    0.703394     2.86101  8.57214e-05
2830  -0.0104122    0.703832     3.32141  -0.00012084
2840   -0.009487    0.704103     3.13706  7.45272e-06
2850  -0.0105613    0.703788     3.07593  0.000100495
2860  -0.0114969    0.703514     3.38321  0.000129512
2870  -0.0131515    0.703029     3.19927  4.3608e-05
2880   -0.012369    0.703258      3.6286  -0.000128699
2890  -0.0105776    0.703783     3.26025  -8.57722e-05
2900  -0.0106536    0.703761     2.95276  0.000166237
2910  -0.0139023    0.702809     3.04542  0.00010871
2920  -0.0128278    0.703124     3.53682  5.15183e-05
2930  -0.0149327    0.702507     3.47554  -8.62603e-05
2940  -0.0111026    0.703629     3.56684  -0.000289212
2950  -0.00914842    0.704202     4.08907  0.000167538
2960  -0.0144534    0.702647     3.16829  0.00010203
2970   -0.011189    0.703604     3.93519  -0.000144774
2980  -0.0115579    0.703496     4.48808  -0.000116264
2990  -0.00886374    0.704285     4.21134  -7.98548e-05
3000  -0.0099608    0.703964     5.19419  3.67247e-05
3010  -0.00959823     0.70407     4.02725  -3.63383e-05
3020  -0.00923403    0.704177     4.14955  0.000117657
3030  -0.0119514     0.70338     3.25989  3.69789e-05
3040  -0.00997361     0.70396     3.29007  8.88631e-05
3050  -0.0137286    0.702859      3.9969  0.000118196
3060  -0.0123375    0.703267     3.93522  -0.000205788
3070  -0.00961287    0.704066     3.44326  -9.54617e-05
3080  -0.0104283    0.703827     3.19801  -2.19819e-05
3090  -0.00917323    0.704195     3.96531  -7.06632e-06
3100   -0.010287    0.703868     4.30319  0.000170955
3110  -0.0125923    0.703193     2.89154  -4.4218e-05
3120  -0.00940261    0.704127     2.98318  0.000127184
3130   -0.015136    0.702447     2.09344  -1.47224e-05
3140  -0.00910816    0.704214     3.44401  -0.000349809
3150  -0.00813982    0.704498     2.30728  6.7481e-05
3160  -0.0104578    0.703818     3.22867  0.000187223
3170  -0.0118843      0.7034     3.35162  -5.9642e-05
3180  -0.00926494    0.704168     3.56669  -1.44784e-05
3190  -0.0115947    0.703485     3.78158  -5.24129e-05
3200  -0.00821668    0.704475     4.36453  -0.000345905
3210  -0.0046766    0.705513     3.65842  -0.00012818
3220  -0.00565307    0.705227     4.24178  -0.000144001
3230  -0.00179658    0.706357     2.86029  -3.81684e-05
3240  -0.00488971     0.70545     3.29022  3.69483e-05
3250  -0.00253555     0.70614     2.67605  -0.00028122
3260  0.000734696    0.707099     3.41233  -0.000228756
3270  0.00203958    0.707481     3.19741  0.000128109
3280  -0.00182749    0.706348     3.68935  0.000166196
3290  -0.00128435    0.706507     3.32037  -0.000252833
3300  0.00322917     0.70783     3.68827  -7.73943e-05
3310  0.000263539    0.706961     2.64494  0.000113163
3320  0.000965903    0.707167     3.13568  -0.000123951
3330  0.00274255    0.707687       3.596  0.000206022
3340  -0.00315454    0.705959      3.1052  4.45739e-05
3350  0.00185108    0.707426     3.10511  -0.000339632
3360   0.0036381     0.70795      3.3503  2.17074e-05
3370  0.00141693    0.707299     3.84203  9.87051e-05
3380    0.001664    0.707371      4.1796  -0.000125283
3390  0.00392258    0.708033     2.85921  -0.000125476
3400  0.00417351    0.708107     2.06134  2.14736e-05
3410  0.00349311    0.707907     2.92085  -0.000211695
3420  0.00840742    0.709348     2.91992  -0.000102894
3430  0.00555099    0.708511     3.53472  -8.04038e-05
3440   0.0100155    0.709819     3.47284  -0.000103585
3450   0.0076227    0.709118     3.77991  0.000145831
3460  0.00709888    0.708964     3.44224  -0.000151169
3470   0.0106461    0.710004     3.44239  -2.58354e-05
3480  0.00761559    0.709116      2.6447  0.000107124
3490  0.00850361    0.709376     4.02557  5.48025e-06
3500  0.00750598    0.709084     3.47287  -0.000136477
3510   0.0112331    0.710176     3.16559  -0.000152348
3520   0.0105529    0.709977     2.45996  -0.000303355
3530   0.0173002    0.711955     3.07269  6.84266e-05
3540  0.00918442    0.709576     3.04305  0.000408404
3550  0.00913216     0.70956     2.88965  -0.000105914
3560   0.0113027    0.710197     2.03024  -0.000153782
3570   0.0122078    0.710462     3.47308  -6.67388e-05
3580   0.0126375    0.710588     3.90256  -0.00022653
3590   0.0167384     0.71179     3.04254  -0.000274896
3600   0.0181354    0.712199     3.28782  -8.38811e-05
3610    0.018416    0.712282        3.38  0.000164285
3620   0.0148497    0.711236      2.6438  1.19365e-05
3630   0.0181773    0.712212     2.82771  -0.000365457
3640   0.0221588    0.713379     2.95022  2.80722e-05
3650   0.0176158    0.712047     3.01153  0.000180827
3660   0.0185423    0.712319     2.95025  -0.000149481
3670   0.0206055    0.712923     3.19573  -0.000157991
3680   0.0217021    0.713245      3.8402  0.000198173
3690    0.016642    0.711762     3.50313  0.000117108
3700   0.0193599    0.712558     3.80975  -0.000174696
3710   0.0201359    0.712786      4.0859  6.89248e-05
3720   0.0179815    0.712154     3.90223  1.18552e-05
3730   0.0198988    0.712716     3.47182  -0.000183898
3740   0.0216594    0.713232     3.71748  -1.2638e-05
3750   0.0201516     0.71279      2.8886  0.00027395
3760   0.0161804    0.711626     3.84059  -0.000226143
3770   0.0246744    0.714116     4.02395  -0.000250545
3780   0.0211913    0.713095     3.77862  0.000151199
3790   0.0216505     0.71323     3.84017  7.7801e-05
3800   0.0196353    0.712639      3.7488  3.65314e-05
3810   0.0209198    0.713015     4.08599  -9.54719e-05
3820   0.0215447    0.713199     3.41039  -0.000253321
3830   0.0259862    0.714501     3.71706  -0.00032859
3840   0.0281165    0.715125     4.45383  -0.000180146
3850   0.0295892    0.715557     3.99288  5.24333e-05
3860   0.0270679    0.714818       4.085  0.00011902
3870   0.0272088    0.714859     3.71679  -3.91546e-05
3880   0.0278509    0.715047     3.74736  -1.40819e-05
3890   0.0274904    0.714941     3.84023  -0.000131597
3900   0.0304829    0.715819     4.72973  -3.10512e-05
3910   0.0281114    0.715123     4.60714  0.000111425
3920   0.0282544    0.715165      4.1158  0.000137341
3930   0.0253646    0.714318     4.79128  -7.34696e-05
3940   0.0297238    0.715596      4.1461  -4.77766e-05
3950   0.0263201    0.714598     4.08488  0.000205442
3960   0.0256149    0.714392     4.54571  0.000240266
3970   0.0215148     0.71319     4.11598  0.000138836
3980   0.0228382    0.713578     4.05431  -4.74106e-05
3990    0.022463    0.713468     4.08458  7.16192e-05
4000   0.0214058    0.713158     4.14604  0.000233942
4010   0.0177842    0.712096     4.17708  0.000260194
4020    0.016202    0.711633     5.49739  -2.13719e-05
4030   0.0182116    0.712222     4.60681  -0.00015851
4040   0.0193722    0.712562     4.82164  -0.000116163
4050   0.0205349    0.712903     5.06686  1.26279e-05
4060   0.0191196    0.712488     4.69833  6.41665e-05
4070   0.0192516    0.712527     4.29947  3.86463e-05
4080   0.0183467    0.712261     5.46617  -0.00012572
4090    0.021766    0.713264     5.12853  3.89005e-05
4100   0.0175687    0.712033      5.8961  -5.08372e-06
4110   0.0218676    0.713293     4.75964  -7.39577e-05
4120   0.0190478    0.712467      4.6371  0.000151809
4130   0.0188314    0.712403     5.12835  1.28516e-05
4140   0.0187908    0.712391      5.6501  -0.000109503
4150   0.0210215    0.713045     4.88253  0.000153091
4160    0.015729    0.711494      5.4661  0.000161702
4170   0.0177875    0.712097     5.95678  -8.31592e-05
4180   0.0173922    0.711981     4.85158  -4.84578e-05
4190   0.0187566    0.712381     5.46545  -2.19921e-05
4200    0.017832     0.71211     4.97435  -3.10817e-05
4210   0.0193783    0.712564     5.71093  4.8651e-05
4220    0.016859    0.711825     5.52688  0.000145963
4230    0.016459    0.711708     5.43524  0.000164376
4240   0.0135714    0.710862     4.85128  -0.000110977
4250   0.0186785    0.712359     4.54373  -0.000119548
4260   0.0159624    0.711562     4.66641  0.000218477
4270    0.014309    0.711078     4.66686  0.000147783
4280   0.0130067    0.710696     4.45191  -0.000183023
4290   0.0179695    0.712151     3.99066  -6.64643e-05
4300    0.014336    0.711086     4.69683  0.000157279
4310   0.0148239    0.711229     4.88121  0.000140147
4320   0.0115331    0.710264     4.85071  0.000275547
4330  0.00931293    0.709613      4.9427  0.000231512
4340  0.00690285    0.708907     4.85068  0.00018708
4350  0.00557133    0.708517      4.5128  8.80395e-05
4360  0.00514206    0.708391      5.1573  -5.69069e-05
4370  0.00670947     0.70885     4.85008  0.000388974
4380  -0.00263742     0.70611     4.38991  0.000270829
4390  0.00129289    0.707263     4.69674  -0.000347969
4400  0.00432196     0.70815     4.51241  0.000172215
4410  -0.00215142    0.706253     5.00399  0.000144458
4420  0.00143279    0.707304     4.29716  -3.77414e-05
4430  -0.00139659    0.706474     5.03425  0.000255832
4440  -0.00368385    0.705804     4.17466  5.41109e-05
4450  -0.00247881    0.706157     4.75793  8.52027e-06
4460  -0.00385426    0.705754     4.23588  6.37801e-05
4470  -0.00375441    0.705783     4.32812  -5.63681e-05
4480  -0.0027269    0.706084     3.74421  0.000212712
4490  -0.00800866    0.704536      4.2662  0.000240825
4500  -0.0075434    0.704672     3.95934  9.28282e-06
4510  -0.00819431    0.704482     4.51202  0.000177248
4520  -0.0110884    0.703633      4.2662  0.000243174
4530  -0.0130578    0.703056     3.83636  -8.7948e-06
4540  -0.0109125    0.703685     4.17388  -3.66738e-05
4550  -0.0123243    0.703271     4.08173  5.99911e-07
4560  -0.0109245    0.703681      4.8493  -0.000140412
4570  -0.00951608    0.704094     4.78754  0.000255263
4580  -0.0160297    0.702185     4.60381  0.000246092
4590  -0.0144379    0.702652     3.86639  1.55568e-06
4600  -0.0160608    0.702176     4.05092  5.81474e-05
4610  -0.0156009    0.702311     4.60357  4.9017e-05
4620  -0.0170412    0.701889     4.20417  -1.761e-05
4630  -0.0152487    0.702414     4.35757  0.000182993
4640   -0.020701    0.700816     4.08143  0.000240337
4650  -0.0200554    0.701005     4.97132  -5.5087e-05
4660  -0.0195993    0.701139     4.38751  8.86699e-05
4670  -0.0218288    0.700485     4.57231  -0.00013238
4680  -0.0169517    0.701915     3.95755  -4.555e-05
4690  -0.0209178    0.700752     4.08083  0.000214003
4700  -0.0212318     0.70066     4.75634  -4.5916e-05
4710  -0.0199995    0.701021     4.97093  0.000109066
4720  -0.0234131    0.700021     4.29539  -1.70914e-05
4730  -0.0196577    0.701122     4.66332  -1.64916e-05
4740  -0.0230833    0.700117     5.18555  0.000177594
4750  -0.0232095     0.70008     4.08017  7.12227e-05
4760  -0.0245077      0.6997      4.0802  -0.000104643
4770  -0.0211167    0.700694     4.14115  4.23675e-05
4780  -0.0253551    0.699452     4.20276  4.18083e-05
4790  -0.0219528    0.700449     4.11038  0.00013121
4800  -0.0279793    0.698682     4.08017  0.000199759
4810   -0.025948    0.699278     3.74229  6.31293e-05
4820  -0.0292418    0.698312     4.14151  3.31661e-05
4830  -0.0266113    0.699083     3.61907  -0.000293228
4840  -0.0233773    0.700031     3.34227  0.000212204
4850  -0.0308554    0.697839     3.92596  0.000351263
4860  -0.0304026    0.697972     3.09711  -0.000224822
4870   -0.026359    0.699157     3.46495  -8.55282e-05
4880   -0.028692    0.698473     3.28087  0.00023384
4890  -0.0310358    0.697786     3.92563  0.000355046
4900  -0.0357929    0.696392     3.58784  -1.56172e-05
4910  -0.0307234    0.697878      3.3114  -0.000105263
4920  -0.0336876    0.697009     3.15782  0.000206246
4930  -0.0348484    0.696669     2.81989  8.59654e-05
4940   -0.035407    0.696505     2.91209  -0.000106036
4950  -0.0327276    0.697291      2.5124  5.6185e-05
4960  -0.0365307    0.696176     2.85033  0.000360749
4970  -0.0399426    0.695176     3.00415  0.000433579
4980  -0.0452022    0.693634     3.31107  0.000179983
4990  -0.0435423    0.694121     3.18812  -7.36117e-05
