Time   Number   
ps   
0          35          45
10          35          49
20          38          46
30          35          55
40          36          46
50          37          51
60          35          47
70          37          53
80          34          50
90          35          47
100          36          48
110          38          44
120          39          49
130          37          59
140          33          57
150          34          56
160          34          50
170          33          49
180          35          49
190          38          44
200          34          44
210          31          51
220          31          49
230          34          54
240          32          44
250          35          49
260          33          51
270          36          52
280          34          54
290          36          50
300          34          50
310          33          51
320          34          54
330          36          50
340          37          53
350          36          48
360          34          54
370          34          54
380          36          48
390          33          47
400          32          54
410          35          51
420          37          47
430          36          54
440          34          54
450          35          53
460          35          53
470          35          53
480          36          50
490          36          54
500          36          52
510          34          48
520          33          51
530          35          47
540          37          47
550          33          61
560          34          46
570          35          49
580          35          57
590          34          48
600          37          49
610          37          59
620          35          53
630          33          53
640          36          56
650          34          50
660          34          56
670          34          48
680          35          47
690          35          53
700          35          57
710          35          53
720          34          54
730          36          52
740          34          50
750          38          60
760          33          55
770          33          49
780          34          52
790          35          53
800          32          54
810          34          48
820          37          51
830          36          50
840          35          51
850          36          48
860          36          50
870          37          53
880          35          49
890          34          54
900          34          50
910          37          51
920          33          51
930          33          49
940          32          60
950          34          52
960          35          51
970          36          52
980          33          47
990          33          55
1000          36          52
1010          33          53
1020          37          47
1030          39          53
1040          35          55
1050          38          50
1060          38          54
1070          35          57
1080          35          53
1090          35          57
1100          36          54
1110          35          47
1120          38          58
1130          34          58
1140          36          54
1150          36          48
1160          34          54
1170          32          56
1180          36          52
1190          33          51
1200          34          58
1210          33          53
1220          35          49
1230          30          48
1240          33          55
1250          34          46
1260          33          47
1270          34          46
1280          33          55
1290          34          48
1300          31          43
1310          34          50
1320          33          43
1330          33          57
1340          33          51
1350          37          43
1360          34          46
1370          37          49
1380          30          44
1390          35          51
1400          32          50
1410          32          50
1420          30          50
1430          31          55
1440          32          54
1450          32          52
1460          30          46
1470          29          53
1480          30          46
1490          29          45
1500          34          52
1510          29          49
1520          33          57
1530          35          49
1540          32          56
1550          34          56
1560          29          49
1570          32          52
1580          34          50
1590          27          49
1600          33          49
1610          32          50
1620          33          47
1630          33          61
1640          32          48
1650          33          53
1660          31          53
1670          35          51
1680          33          51
1690          34          48
1700          33          53
1710          33          49
1720          34          54
1730          35          55
1740          34          52
1750          36          54
1760          36          46
1770          36          48
1780          37          57
1790          34          52
1800          35          51
1810          31          51
1820          31          51
1830          33          51
1840          33          51
1850          35          59
1860          33          51
1870          32          58
1880          35          55
1890          36          50
1900          35          55
1910          30          46
1920          32          50
1930          31          59
1940          32          58
1950          33          53
1960          34          48
1970          30          54
1980          32          44
1990          32          46
2000          35          51
2010          32          44
2020          34          50
2030          32          48
2040          35          53
2050          38          50
2060          33          53
2070          37          61
2080          35          51
2090          38          56
2100          35          49
2110          34          52
2120          33          49
2130          37          53
2140          38          54
2150          31          61
2160          35          55
2170          35          57
2180          34          56
2190          31          53
2200          36          58
2210          34          54
2220          34          44
2230          37          45
2240          32          56
2250          37          49
2260          38          46
2270          32          48
2280          33          43
2290          32          46
2300          34          46
2310          34          44
2320          29          53
2330          33          53
2340          36          52
2350          32          48
2360          35          51
2370          36          46
2380          33          55
2390          35          47
2400          35          49
2410          33          51
2420          38          52
2430          31          49
2440          32          46
2450          30          56
2460          37          53
2470          35          47
2480          33          49
2490          34          50
2500          34          50
2510          31          55
2520          34          54
2530          36          50
2540          37          51
2550          35          49
2560          32          54
2570          35          51
2580          35          49
2590          34          52
2600          37          49
2610          33          51
2620          30          48
2630          31          49
2640          30          44
2650          30          56
2660          34          44
2670          29          47
2680          32          44
2690          32          46
2700          31          45
2710          31          39
2720          31          49
2730          33          49
2740          31          55
2750          33          55
2760          35          45
2770          30          46
2780          32          46
2790          33          45
2800          30          44
2810          30          40
2820          32          50
2830          30          38
2840          32          42
2850          33          47
2860          32          40
2870          34          48
2880          29          45
2890          32          46
2900          32          48
2910          29          51
2920          28          52
2930          30          52
2940          29          47
2950          29          49
2960          32          48
2970          29          41
2980          29          47
2990          34          50
3000          31          47
3010          27          41
3020          29          51
3030          32          44
3040          31          49
3050          30          54
3060          30          52
3070          30          42
3080          33          53
3090          29          47
3100          33          53
3110          28          52
3120          28          48
3130          30          52
3140          31          47
3150          31          57
3160          29          57
3170          31          57
3180          31          53
3190          34          50
3200          32          48
3210          33          51
3220          30          64
3230          34          46
3240          31          57
3250          28          62
3260          33          51
3270          32          44
3280          30          60
3290          34          52
3300          31          49
3310          35          57
3320          32          52
3330          32          48
3340          32          50
3350          32          50
3360          30          46
3370          29          49
3380          34          52
3390          32          52
3400          32          52
3410          31          55
3420          32          52
3430          31          53
3440          30          48
3450          33          61
3460          31          49
3470          30          48
3480          27          49
3490          30          50
3500          32          58
3510          31          47
3520          29          55
3530          29          53
3540          29          45
3550          34          50
3560          30          50
3570          34          50
3580          33          47
3590          33          55
3600          29          51
3610          30          52
3620          34          48
3630          33          53
3640          32          48
3650          31          49
3660          35          53
3670          35          55
3680          30          46
3690          35          47
3700          32          50
3710          33          45
3720          31          55
3730          33          51
3740          31          53
3750          30          50
3760          30          50
3770          28          50
3780          33          49
3790          31          49
3800          31          51
3810          31          53
3820          34          56
3830          31          53
3840          29          55
3850          33          49
3860          31          47
3870          31          43
3880          35          49
3890          32          56
3900          32          52
3910          35          51
3920          33          49
3930          28          52
3940          36          44
3950          31          43
3960          27          39
3970          30          56
3980          34          46
3990          29          47
4000          36          42
4010          33          45
4020          31          49
4030          31          57
4040          33          49
4050          31          43
4060          32          46
4070          31          49
4080          31          53
4090          28          50
4100          31          47
4110          31          43
4120          33          45
4130          32          42
4140          30          42
4150          32          58
4160          34          52
4170          32          46
4180          32          42
4190          33          47
4200          34          50
4210          32          48
4220          36          48
4230          35          49
4240          31          45
4250          37          53
4260          33          55
4270          31          49
4280          33          51
4290          30          48
4300          34          56
4310          34          54
4320          33          43
4330          34          50
4340          33          51
4350          35          51
4360          34          52
4370          34          52
4380          34          50
4390          38          48
4400          35          53
4410          35          49
4420          32          58
4430          32          48
4440          36          58
4450          34          52
4460          35          59
4470          35          49
4480          36          52
4490          34          56
4500          33          53
4510          31          51
4520          34          56
4530          31          59
4540          29          55
4550          37          55
4560          36          46
4570          33          51
4580          33          51
4590          38          50
4600          33          51
4610          31          49
4620          30          50
4630          32          42
4640          33          51
4650          30          38
4660          30          44
4670          32          48
4680          34          56
4690          32          50
4700          35          47
4710          33          63
4720          32          52
4730          35          55
4740          35          53
4750          34          42
4760          33          47
4770          30          46
4780          34          56
4790          36          50
4800          33          49
4810          34          52
4820          32          50
4830          36          52
4840          32          52
4850          37          47
4860          36          60
4870          33          57
4880          35          47
4890          34          54
4900          36          58
4910          34          48
4920          36          62
4930          33          59
4940          34          54
4950          36          48
4960          29          49
4970          36          54
4980          33          51
4990          34          52
5000          31          57
5010          33          51
5020          36          52
5030          33          53
5040          35          55
5050          34          56
5060          32          48
5070          36          52
5080          34          58
5090          35          53
5100          35          57
5110          37          53
5120          32          48
5130          35          53
5140          33          53
5150          38          50
5160          37          55
5170          36          58
5180          36          56
5190          30          54
5200          35          49
5210          31          49
5220          34          52
5230          32          54
5240          28          52
5250          33          53
5260          35          51
5270          34          54
5280          32          58
5290          33          55
5300          34          52
5310          34          58
5320          34          52
5330          31          53
5340          36          56
5350          34          50
5360          36          54
5370          35          55
5380          32          50
5390          34          54
5400          35          53
5410          34          56
5420          33          53
5430          35          55
5440          34          62
5450          33          57
5460          33          59
5470          34          54
5480          33          59
5490          32          54
5500          33          47
5510          33          49
5520          34          56
5530          36          48
5540          35          55
5550          32          44
5560          31          47
5570          30          48
5580          34          54
5590          32          50
5600          36          50
5610          33          59
5620          32          54
5630          34          56
5640          33          53
5650          36          56
5660          35          53
5670          35          59
5680          32          54
5690          33          49
5700          29          53
5710          31          51
5720          33          51
5730          33          51
5740          32          58
5750          33          59
5760          33          53
5770          34          60
5780          36          52
5790          34          50
5800          32          50
5810          29          51
5820          35          47
5830          32          46
5840          34          50
5850          34          54
5860          34          50
5870          34          46
5880          33          51
5890          34          52
5900          31          47
5910          29          49
5920          34          48
5930          33          49
5940          33          51
5950          30          48
5960          34          54
5970          32          54
5980          37          49
5990          34          52
6000          32          50
6010          34          50
6020          31          63
6030          33          53
6040          40          56
6050          36          52
6060          37          49
6070          35          51
6080          33          51
6090          33          55
6100          30          48
6110          39          47
6120          34          50
6130          32          50
6140          31          51
6150          33          47
6160          32          50
6170          33          45
6180          28          50
6190          35          49
6200          32          52
6210          35          47
6220          36          50
6230          35          45
6240          34          48
6250          35          51
6260          35          53
6270          36          52
6280          34          44
6290          32          58
6300          34          54
6310          34          44
6320          35          51
6330          31          53
6340          34          52
6350          32          52
6360          31          53
6370          35          51
6380          37          43
6390          35          51
6400          32          48
6410          35          51
6420          36          46
6430          33          47
6440          34          56
6450          34          52
6460          34          52
6470          31          51
6480          35          57
6490          32          52
6500          34          52
6510          32          58
6520          36          58
6530          32          50
6540          37          59
6550          33          57
6560          36          50
6570          34          56
6580          34          62
6590          33          51
6600          34          64
6610          36          50
6620          33          49
6630          39          51
6640          34          64
6650          33          55
6660          37          55
6670          38          48
6680          36          52
6690          37          57
6700          37          59
6710          39          63
6720          41          59
6730          39          65
6740          34          64
6750          35          55
6760          34          64
6770          37          53
6780          36          62
6790          35          55
6800          38          56
6810          39          55
6820          38          58
6830          35          51
6840          38          52
6850          39          63
6860          36          56
6870          36          62
6880          38          60
6890          33          53
6900          38          60
6910          36          54
6920          37          61
6930          32          56
6940          28          56
6950          33          51
6960          33          47
6970          36          54
6980          33          49
6990          33          51
7000          35          47
7010          35          55
7020          35          49
7030          37          51
7040          36          50
7050          32          50
7060          32          60
7070          32          54
7080          36          58
7090          33          53
7100          36          54
7110          34          48
7120          30          44
7130          34          48
7140          31          53
7150          31          47
7160          36          56
7170          36          46
7180          35          57
7190          37          55
7200          35          49
7210          36          56
7220          37          51
7230          34          48
7240          34          54
7250          34          54
7260          36          50
7270          35          49
7280          32          54
7290          33          47
7300          37          55
7310          32          56
7320          35          49
7330          38          56
7340          32          46
7350          33          57
7360          32          46
7370          33          57
7380          35          55
7390          35          47
7400          34          52
7410          35          53
7420          32          50
7430          35          51
7440          34          60
7450          32          54
7460          36          54
7470          35          49
7480          35          59
7490          37          59
7500          35          53
7510          32          56
7520          31          55
7530          33          63
7540          37          61
7550          37          57
7560          35          55
7570          31          63
7580          32          52
7590          35          55
7600          32          56
7610          34          58
7620          34          58
7630          36          48
7640          36          50
7650          32          50
7660          38          50
7670          35          49
7680          33          49
7690          33          49
7700          33          49
7710          31          47
7720          35          51
7730          34          48
7740          34          56
7750          33          51
7760          33          61
7770          31          51
7780          31          53
7790          27          45
7800          33          47
7810          31          45
7820          31          49
7830          31          47
7840          29          45
7850          31          49
7860          35          51
7870          33          45
7880          33          47
7890          30          48
7900          31          43
7910          31          49
7920          33          51
7930          29          57
7940          34          54
7950          36          54
7960          28          58
7970          35          51
7980          34          58
7990          36          60
8000          37          55
8010          35          49
8020          32          54
8030          32          58
8040          37          53
8050          33          57
8060          35          55
8070          33          47
8080          33          55
8090          34          48
8100          28          58
8110          34          48
8120          34          48
8130          33          49
8140          36          44
8150          32          46
8160          35          51
8170          33          57
8180          32          50
8190          35          53
8200          34          58
8210          37          51
8220          33          49
8230          34          54
8240          32          50
8250          32          60
8260          31          47
8270          38          54
8280          36          50
8290          33          51
8300          34          58
8310          37          55
8320          34          52
8330          34          58
8340          36          48
8350          31          51
8360          33          57
8370          36          54
8380          36          52
8390          36          48
8400          34          54
8410          31          53
8420          32          50
8430          31          53
8440          31          55
8450          34          58
8460          34          56
8470          34          62
8480          33          61
8490          38          52
8500          37          45
8510          33          47
8520          34          54
8530          34          56
8540          30          50
8550          35          49
8560          28          48
8570          32          52
8580          33          57
8590          34          50
8600          31          51
8610          32          54
8620          36          58
8630          34          52
8640          35          61
8650          33          45
8660          34          52
8670          33          57
8680          33          59
8690          34          58
8700          35          55
8710          33          53
8720          32          58
8730          33          57
8740          34          62
8750          33          57
8760          34          52
8770          32          52
8780          29          57
8790          32          42
8800          32          52
8810          35          55
8820          35          53
8830          33          51
8840          31          47
8850          29          51
8860          30          52
8870          32          44
8880          31          47
8890          31          53
8900          32          52
8910          31          43
8920          27          53
8930          29          61
8940          31          53
8950          27          47
8960          30          50
8970          26          50
8980          31          51
8990          31          49
9000          35          49
9010          35          49
9020          32          60
9030          34          52
9040          34          48
9050          34          52
9060          30          54
9070          32          54
9080          32          48
9090          34          48
9100          31          51
9110          34          50
9120          30          48
9130          29          49
9140          31          55
9150          31          53
9160          31          55
9170          32          46
9180          35          55
9190          33          45
9200          36          50
9210          33          51
9220          32          58
9230          34          52
9240          34          46
9250          37          45
9260          30          54
9270          35          49
9280          36          46
9290          34          50
9300          32          52
9310          34          54
9320          33          47
9330          32          54
9340          35          55
9350          32          64
9360          33          53
9370          33          55
9380          34          46
9390          33          51
9400          33          51
9410          32          48
9420          33          43
9430          30          52
9440          33          61
9450          31          49
9460          33          49
9470          31          59
9480          33          43
9490          32          50
9500          34          46
9510          36          56
9520          33          49
9530          35          47
9540          33          51
9550          33          51
9560          31          51
9570          34          54
9580          33          47
9590          33          53
9600          31          53
9610          32          48
9620          31          51
9630          29          57
9640          31          45
9650          35          51
9660          31          51
9670          31          49
9680          33          57
9690          36          58
9700          35          57
9710          34          54
9720          35          55
9730          32          50
9740          33          53
9750          32          50
9760          30          54
9770          33          51
9780          31          55
9790          33          49
9800          30          50
9810          33          53
9820          31          47
9830          31          51
9840          33          49
9850          30          58
9860          33          59
9870          36          48
9880          32          54
9890          28          44
9900          33          51
9910          31          53
9920          32          54
9930          36          58
9940          34          48
9950          36          60
9960          31          49
9970          35          49
9980          36          48
9990          34          56
10000          38          58
