Time   C(t)   
ps   
0           1           1  2.71288e-10   0.0219024
10    0.785446    0.843046     1.23523   0.0122939
20    0.754122    0.820131     1.07581  0.00268548
30    0.731736    0.803755     0.99552  0.00204996
40    0.713123    0.790139   -0.507415  0.00191635
50    0.693409    0.775718     1.62825  0.00175552
60    0.678012    0.764454    0.678613  0.00137115
70    0.665986    0.755657     1.23075  0.00133687
80    0.651275    0.744895      1.4686  0.00131278
90    0.639731     0.73645     2.02197  0.00105963
100    0.630082    0.729392     1.22959  0.000784302
110    0.624045    0.724975     1.78203  0.000882232
120    0.612438    0.716484     1.07025  0.000990728
130     0.60423     0.71048    0.278713  0.00103038
140     0.59183    0.701409     2.09848  0.000951874
150    0.585193    0.696553     1.22828  0.000782409
160    0.576182    0.689961    0.595003  0.000676477
170    0.571663    0.686656    0.831467  0.000489935
180    0.566383    0.682793     0.19827  0.000657704
190    0.558509    0.677033     1.70144  0.000745115
200    0.551481    0.671892     2.80833  0.000649628
210    0.545517    0.667529     4.31057  0.000694185
220    0.537597    0.661735     3.20337  0.000592837
230     0.53366    0.658855     3.28134  0.000334635
240    0.530904    0.656839     3.75519  0.000497821
250    0.523703    0.651572     3.99336  0.000693724
260     0.51703     0.64669     3.59686  0.000619197
270     0.51132    0.642512     2.64822  0.000555366
280    0.505923    0.638564     1.93605  0.000594591
290    0.499428    0.633813     3.04449  0.000470592
300    0.496511    0.631679     1.77732  0.000351882
310     0.49239    0.628665     4.94169  0.000368895
320    0.489133    0.626282     3.83463  0.000309657
330    0.486197    0.624134     2.09384  0.000255664
340     0.48402    0.622541     3.19958  0.000376599
350    0.478665    0.618624     3.27964  0.00042102
360    0.475599    0.616382     2.96211  0.000191763
370     0.47483    0.615819     2.56546  0.000428252
380    0.467034    0.610116     3.19974  0.000505686
390    0.464716     0.60842     2.64552  0.000430049
400    0.458433    0.603824     2.88291  0.00037569
410    0.457202    0.602923     3.91044  0.000261004
420    0.453213    0.600005     2.09191  0.000454488
430    0.448112    0.596274     2.64513  0.00035044
440    0.446204    0.594878     2.88213  0.000384514
450    0.440422    0.590648      2.2501  0.000551151
460    0.435181    0.586814    0.668804  0.000352897
470    0.433364    0.585485      1.9335  0.000226274
480    0.430656    0.583504     2.24909  0.000204504
490    0.429274    0.582493    0.666718  0.000243911
500    0.425778    0.579935   -0.282228  0.000427885
510    0.420716    0.576233   0.0340623  0.000300615
520    0.419765    0.575537    0.270912  0.000240155
530    0.415913    0.572719    0.824979  0.000391179
540    0.411942    0.569814     1.53607  0.000358473
550    0.408744    0.567474     1.69356  0.000543818
560    0.401065    0.561857     2.72302  0.000415985
570    0.400424    0.561388     2.01039  0.000181869
580    0.397428    0.559196     2.16764  0.000299928
590    0.394426       0.557     1.21862  0.000300574
600    0.391417    0.554799   -0.284004  0.000340581
610    0.387614    0.552017    0.744767  0.000380656
620    0.383803     0.54923    0.587357  0.000477244
630    0.378069    0.545035     2.16826  0.000466882
640    0.374466    0.542399     1.77284  0.000366354
650    0.370742    0.539675      2.4055  0.000265391
660    0.369158    0.538516     1.53499  0.000175549
670    0.367231    0.537106    0.269213  0.000311856
680    0.362921    0.533953    0.269136  0.000278381
690    0.361663    0.533033     1.61242  0.000307533
700     0.35677    0.529454     2.87858  0.000398903
710    0.353685    0.527197    0.743145  0.000320207
720    0.350366    0.524769    0.743377  0.000298123
730    0.347723    0.522835     1.29683  0.000412829
740    0.342109    0.518729     2.56191  0.000424968
750    0.339224    0.516618     1.77107  0.000414599
760    0.333817    0.512663     2.95779  0.000363892
770    0.331946    0.511294     3.51108  0.000238916
780    0.329039    0.509167     2.24523  0.000365476
790    0.324636    0.505947     2.87789  0.000400615
800    0.321027    0.503306     4.14382  0.000217707
810    0.320282    0.502761     4.45887  0.000195327
820     0.31712    0.500448     3.19248  0.00044319
830    0.311418    0.496277     3.66764  0.000346042
840    0.310199    0.495386     4.37881  0.000208567
850    0.307247    0.493226     5.24863  0.000330217
860    0.303595    0.490554     4.69503  0.000284646
870    0.301554    0.489061     5.09021  0.000169592
880    0.300203    0.488073     5.24855  0.000227949
890    0.296995    0.485726     4.29899  0.000373383
900    0.292736     0.48261     3.58844  0.000414795
910    0.288699    0.479657     2.95462  0.000136645
920    0.290003    0.480611     2.79567  0.000131413
930    0.286071    0.477735     3.11242  0.000154747
940    0.286908    0.478347     3.11126  6.20127e-05
950    0.284831    0.476827     4.21839  0.000278044
960    0.281347    0.474279     2.87464  0.000325367
970    0.278323    0.472067     2.47907  0.000121275
980    0.278921    0.472505      3.1907  9.24304e-05
990    0.276475    0.470715     2.71553  0.000280169
1000    0.273318    0.468405     2.63679  0.00025728
1010    0.271329     0.46695     2.39978  0.000187363
1020    0.269571    0.465664    0.501506  0.000228983
1030    0.266749      0.4636     1.68777  0.000435662
1040    0.260858     0.45929    0.580945  0.000165132
1050    0.263447    0.461184     2.79505  6.22869e-07
1060    0.260845    0.459281     1.52989  0.00021908
1070    0.259065    0.457979     1.29204  0.000219625
1080    0.256453    0.456068     1.37155  0.000220068
1090    0.254664    0.454759   -0.130995  0.00013162
1100     0.25382    0.454142   -0.290337  0.000155728
1110    0.251549    0.452481    0.897003  1.33231e-05
1120    0.253554    0.453947     1.29173  -2.80797e-05
1130    0.252111    0.452892     1.29072  0.000239797
1140    0.248758    0.450439     2.16069  0.000156721
1150    0.248976    0.450599     3.03066  9.15922e-05
1160    0.246926    0.449099     2.16093  0.000175378
1170    0.245469    0.448033     2.08156  9.19975e-05
1180    0.245086    0.447753     2.47667  0.00015219
1190    0.242425    0.445806    0.894685  0.000224397
1200    0.240598     0.44447     2.79281  0.000176907
1210    0.238887    0.443218     2.63462  6.90959e-05
1220    0.239216    0.443459     3.10894  0.00010548
1230    0.236777    0.441675     2.47637  0.000316484
1240    0.232886    0.438828     1.68545  0.000148208
1250    0.233813    0.439506     2.23828  0.000130702
1260    0.230272    0.436916     1.52672  0.000239578
1270    0.229022    0.436001        2.16  0.000107073
1280    0.228131    0.435349     2.63393  0.000143714
1290    0.226147    0.433898     3.74121  0.000113641
1300    0.225858    0.433687     3.18769  0.000107921
1310    0.223989    0.432319     3.66131  0.000101997
1320    0.223818    0.432195     3.89832  5.9703e-05
1330    0.222795    0.431446     3.50282  0.000291439
1340    0.217989    0.427931     3.58218  0.000139323
1350    0.220008    0.429407     2.47459  -1.27152e-05
1360    0.218244    0.428117     3.10701  0.000139966
1370    0.217209     0.42736     3.18607  0.000293437
1380    0.212375    0.423823     2.07917  0.000312298
1390    0.210963    0.422791     1.76288  0.000122933
1400    0.209916    0.422025     1.36754  0.000135525
1410    0.208253    0.420808     2.39538  0.000228104
1420    0.205354    0.418687     3.50274  0.000179282
1430    0.204667    0.418185     1.36622  5.03071e-05
1440    0.204348    0.417951     2.55202  0.000155421
1450    0.201559    0.415911     2.39391  0.00022364
1460    0.199875    0.414679     3.02757  5.71221e-05
1470    0.200416    0.415075     1.68205  -4.5687e-06
1480    0.199967    0.414746     2.15668  5.11937e-05
1490    0.199392    0.414326     2.23519  0.000181728
1500    0.196332    0.412087     1.20742  0.000101182
1510    0.197369    0.412846    0.573916  3.94031e-05
1520    0.195544    0.411511    0.415733  0.000182676
1530    0.193715    0.410173      2.1566  7.70338e-05
1540    0.194003    0.410384     1.91859  0.000183541
1550    0.190044    0.407488     1.76056  0.000308831
1560    0.187827    0.405865     2.39376  0.000153115
1570    0.186982    0.405247     2.63076  0.000109658
1580    0.185634    0.404261     2.70958  -1.56522e-05
1590    0.187295    0.405476    0.731405  -0.000103496
1600    0.187704    0.405775     1.68058  4.0894e-05
1610    0.186477    0.404878     1.83915  7.23995e-05
1620    0.186256    0.404716    0.968796  0.000167251
1630    0.183132    0.402431      1.1276  0.00019273
1640    0.182401    0.401896     2.07639  0.000161721
1650    0.179898    0.400065    0.810767  0.000307596
1660    0.176249    0.397396   -0.532903  0.000194188
1670    0.176014    0.397224     1.28563  5.52595e-05
1680    0.175144    0.396587    0.889974  0.000169715
1690     0.17262    0.394741     2.23542  0.000100053
1700    0.173143    0.395124     2.31362  -0.000135147
1710    0.175323    0.396718     1.44257  -3.33488e-05
1720     0.17381    0.395611     1.83892  0.000145087
1730    0.172421    0.394595    0.968332  -2.07365e-05
1740    0.174224    0.395915     3.34062  3.70018e-05
1750    0.171681    0.394054     2.15498  0.000184184
1760    0.170541     0.39322     2.15521  6.92464e-05
1770    0.170296    0.393041      2.6296  0.000108002
1780    0.168381     0.39164     3.65776  9.53123e-05
1790     0.16839    0.391646     2.39206  -9.045e-07
1800    0.168399    0.391653      1.6795  0.000179577
1810    0.164798    0.389019     2.47088  0.000153979
1820    0.165319      0.3894     2.70812  0.00010291
1830     0.16274    0.387513     1.83822  0.000219428
1840    0.160931     0.38619     2.15451  6.45511e-05
1850    0.161449    0.386569     1.52132  6.48551e-05
1860    0.159634    0.385241    0.334363  0.00030513
1870    0.155346    0.382105    0.334595  0.000266718
1880    0.154299    0.381339     1.91596  0.000156909
1890    0.152208    0.379809     2.39098  0.000248484
1900     0.14933    0.377703     1.44242  0.000183804
1910    0.148532     0.37712      2.3909  0.000164775
1920    0.146034    0.375293     1.20518  0.000217403
1930    0.144184    0.373939      1.5996  0.000152496
1940    0.142984    0.373061     2.39052  8.73409e-05
1950    0.142437    0.372661     3.10191  0.000100718
1960     0.14097    0.371588     1.52047  0.000212672
1970    0.138184     0.36955     2.39036  0.000298705
1980    0.134996    0.367218     1.12528  0.000253292
1990    0.133118    0.365844     2.70696  0.00014182
2000    0.132159    0.365143     3.89345  0.000148843
2010    0.130141    0.363666      2.5487  -3.00631e-06
2020    0.132219    0.365187     2.15289  -4.25115e-05
2030    0.130991    0.364288      1.8366  0.000182673
2040    0.128566    0.362514     1.36213  0.000269383
2050    0.125604    0.360347     1.99556  9.05126e-05
2060    0.126756     0.36119     3.02294  -7.54252e-05
2070    0.127112     0.36145     2.15312  0.000124292
2080     0.12427    0.359371     2.46903  0.000164453
2090    0.123823    0.359044      1.8366  7.81544e-05
2100    0.122707    0.358228     2.78508   0.0002322
2110    0.119179    0.355647     2.07399  0.000272827
2120     0.11725    0.354236     1.12412  5.30221e-06
2130    0.119073     0.35557    0.808141  -5.48903e-05
2140    0.118348    0.355039     1.12381  0.00020036
2150    0.115066    0.352638     2.54816  0.000288241
2160    0.112583    0.350822     1.99463  0.000127207
2170    0.112522    0.350777     1.91512  0.000282957
2180    0.106924    0.346682    0.176257  0.000337426
2190    0.105773     0.34584    0.333668  0.000155832
2200    0.103807    0.344402   -0.220089  2.06321e-05
2210     0.10536    0.345538     1.36105  -1.97973e-05
2220    0.104203    0.344692     1.91442  8.86794e-05
2230    0.103587    0.344241     1.51877  0.000197795
2240    0.100247    0.341798     1.99417  0.000136829
2250     0.10085    0.342239     1.28238  0.000110147
2260   0.0980446    0.340186    0.886962  0.000198993
2270   0.0968704    0.339328     1.91511  -6.02372e-05
2280   0.0992493    0.341068     1.36082  -9.43992e-05
2290   0.0987584    0.340709     1.28207  2.85745e-05
2300   0.0986778     0.34065     1.36113  2.1816e-05
2310   0.0983221    0.340389     2.23117  7.68509e-05
2320   0.0971408    0.339525     2.15243  6.32234e-05
2330   0.0970576    0.339464     1.67726  0.000111701
2340   0.0949068    0.337891     1.83575  0.000242984
2350    0.092198    0.335909      1.2823  3.62825e-05
2360   0.0941811     0.33736     1.67726  8.51147e-05
2370   0.0904957    0.334664     1.51962  0.000244316
2380   0.0892948    0.333786     2.46802  0.000113313
2390   0.0882294    0.333006     2.23056  0.00012751
2400   0.0867446     0.33192     1.91442  0.000190417
2410   0.0844211     0.33022     1.99355  0.000211765
2420   0.0825093    0.328822     2.07307  9.37924e-05
2430   0.0825452    0.328848     2.38882  8.71863e-05
2440   0.0807656    0.327546     1.75585  0.000185195
2450   0.0788413    0.326139     1.91427  3.16299e-05
2460    0.080133    0.327083     1.43964  1.0898e-05
2470   0.0786234    0.325979      1.5183  0.00013711
2480   0.0773908    0.325077     1.51854  0.000130457
2490   0.0760142     0.32407     1.67657  0.000137839
2500    0.074634    0.323061     1.67657  0.000145256
2510   0.0731091    0.321945     1.51846  6.09439e-05
2520   0.0734151    0.322169     2.38804  0.000124826
2530   0.0706126    0.320119     1.12196  0.000301867
2540   0.0673778    0.317753    0.805592  0.000210537
2550   0.0664019    0.317039    0.488993  0.00019706
2560   0.0634366    0.314869    0.963852  0.000318246
2570   0.0600369    0.312382    0.568664  0.000240816
2580   0.0586202    0.311346  -0.0646095  0.000141856
2590   0.0571998    0.310307    0.568433  6.37591e-05
2600   0.0573451    0.310413    0.567738  0.000164055
2610   0.0539187    0.307907    0.805283  0.000228643
2620   0.0527722    0.307068    0.172163  0.000222247
2630   0.0494738    0.304655   0.0139801  0.000229872
2640   0.0481748    0.303705    -1.09315  5.82613e-05
2650   0.0483085    0.303803   -0.619062  8.17012e-06
2660   0.0480114    0.303585   -0.303005  0.00010899
2670   0.0461287    0.302208  -0.0652275  8.75469e-05
2680   0.0462604    0.302304    0.250676  0.000145696
2690   0.0432148    0.300076     -1.0144  0.000261587
2700   0.0410287    0.298477   -0.935352  0.00011029
2710    0.041009    0.298463   -0.698192  7.44816e-05
2720    0.039539    0.297388   -0.382058  9.63749e-05
2730   0.0390815    0.297053   -0.857148  2.17967e-06
2740   0.0394954    0.297356   -0.619294  -5.04348e-06
2750   0.0391824    0.297127    0.487757  0.000148018
2760   0.0365351     0.29519    0.567274  0.000257798
2770   0.0340264    0.293355     1.35773  0.000178092
2780   0.0329732    0.292584    0.962076  0.000127435
2790   0.0314777     0.29149     1.51545  0.00013509
2800   0.0302714    0.290608     1.59435  0.000245613
2810   0.0265655    0.287897    0.803893  0.000275536
2820   0.0247607    0.286577     1.91087   0.0001071
2830   0.0244235     0.28633     1.43655  4.27151e-06
2840   0.0246753    0.286514     1.19924  -6.21234e-05
2850   0.0256659    0.287239    0.882945  3.38666e-05
2860    0.023998    0.286019    0.962308  4.15752e-06
2870   0.0255828    0.287178    0.408473  -6.2323e-05
2880   0.0252444     0.28693     1.35726  -3.23877e-06
2890   0.0256476    0.287225     0.17085  4.88566e-05
2900   0.0242673    0.286216     1.12018  0.000123328
2910    0.023181    0.285421    0.488067  -3.2897e-05
2920   0.0249252    0.286697   0.0126673  -9.99928e-05
2930   0.0251809    0.286884   -0.698965  -5.55134e-05
2940   0.0260355    0.287509   0.0917973  6.41849e-05
2950   0.0238972    0.285945   -0.144821  0.000146643
2960   0.0231026    0.285364   -0.224183  -1.05495e-05
2970   0.0241082    0.286099     1.19916  4.97224e-05
2980   0.0221082    0.284636  -0.0662313  0.000102364
2990   0.0220609    0.284602    0.171083  1.98258e-05
3000   0.0217117    0.284346   0.0125128  4.25258e-05
3010   0.0212104    0.283979    0.249826  4.26317e-05
3020    0.020859    0.283722    0.249285  -1.02562e-05
3030   0.0214155    0.284129    0.328571  2.01273e-05
3040   0.0204565    0.283428    0.327798  0.000156802
3050   0.0182795    0.281835    0.406928  8.87058e-05
3060   0.0186824     0.28213    0.960763  -4.79747e-05
3070   0.0192389    0.282537    0.881247  2.81794e-05
3080   0.0181188    0.281718     1.27721  0.000127463
3090   0.0166897    0.280672    0.565498  0.000219628
3100   0.0137262    0.278504    0.407392  0.000143529
3110   0.0138191    0.278572    -1.17475  6.04573e-06
3120   0.0136053    0.278416  -0.0668493  2.14126e-05
3130   0.0133909    0.278259    0.565343  8.30451e-05
3140   0.0119444    0.277201     1.04005  0.000144851
3150   0.0104938     0.27614    0.723759  0.000129832
3160  0.00934776    0.275301     1.19831  6.84013e-05
3170  0.00912582    0.275139    0.881633  9.18937e-05
3180  0.00750989    0.273957    0.328262  9.98053e-05
3190  0.00712971    0.273679   -0.700587  4.58481e-05
3200  0.00659293    0.273286   -0.542481   8.486e-05
3210  0.00543251    0.272437   0.0909476  0.000139563
3220  0.00380167    0.271244   -0.225496  6.97539e-05
3230  0.00403743    0.271417     0.24859  7.62437e-06
3240  0.00364919    0.271133    0.802502  2.32398e-05
3250  0.00357264    0.271077    0.644087  -5.49879e-05
3260  0.00474894    0.271937    0.802116  7.04505e-05
3270  0.00216363    0.270046    0.644087  7.82277e-05
3280  0.00318439    0.270793   0.0110451  -9.43543e-05
3290  0.00405071    0.271426   -0.147139  7.08213e-05
3300  0.00176797    0.269757     0.48575  9.44684e-05
3310  0.00216134    0.270044   0.0109678  -7.10087e-05
3320  0.00318814    0.270795   -0.622538  9.50388e-05
3330  0.000260569    0.268654    -1.01749  0.000174291
3340  -0.000297682    0.268245   -0.463582  7.17929e-05
3350  -0.00117529    0.267603    -1.01688  5.60838e-05
3360  -0.00141936    0.267425    -1.01726  5.60167e-07
3370  -0.00118649    0.267595    -1.80818  -3.92707e-05
3380  -0.000633945       0.268    -2.20375  -7.93012e-05
3390  0.000399531    0.268756    -1.96667  -5.55073e-05
3400  0.000476202    0.268812    -2.67807  -0.000175908
3410   0.0039177    0.271329    -1.72959  -0.000184223
3420  0.00416067    0.271507    -1.57141  4.80011e-05
3430  0.00295768    0.270627    -1.17545  -2.363e-07
3440  0.00416539     0.27151    -1.80857  -8.12139e-06
3450   0.0031201    0.270746    -1.96675  0.000161197
3460  0.000941445    0.269152    -2.04557  7.99916e-06
3470  0.00296012    0.270629   -0.938905  -5.64342e-05
3480  0.00207013    0.269978    -1.65061  0.000129686
3490  0.00036641    0.268731    -1.65023  -2.42908e-05
3500  0.00255595    0.270333    -2.04619  2.4743e-05
3510  -0.000128451    0.268369    -1.41284  0.000179231
3520  -0.00102867    0.267711   -0.543407  0.000130965
3530  -0.00274775    0.266453    -1.01765  1.69007e-05
3540  -0.00136668    0.267463    -1.01796  6.62931e-05
3550  -0.00407361    0.265483     -1.7292  0.000164558
3560  -0.00465785    0.265056    -2.44153  7.49298e-05
3570  -0.0055722    0.264387    -1.33463  0.000173806
3580  -0.00813398    0.262513     -1.9669  0.000100099
3590  -0.00757418    0.262922    -1.65061  -8.90664e-05
3600  -0.00635265    0.263816    -1.33432  -0.00015539
3610  -0.00446638    0.265196    -1.33517  0.000108972
3620  -0.00853208    0.262222    -1.41376  0.000141993
3630  -0.00730623    0.263118      -1.888  -6.56107e-06
3640  -0.00840086    0.262318    -2.04619  1.55421e-06
3650  -0.00733732    0.263096     -1.4932  -5.65564e-05
3660  -0.00726973    0.263145    -2.20468  1.56234e-06
3670  -0.00736856    0.263073    -1.01842  1.55419e-06
3680  -0.00730082    0.263122    -2.75859  5.17716e-05
3690   -0.008404    0.262315    -3.47015  3.50827e-05
3700  -0.00800247    0.262609     -1.3344  -1.5041e-05
3710  -0.00810318    0.262535    -2.20484  0.000119366
3720  -0.0103898    0.260863    -2.28396  8.58908e-05
3730  -0.00982099    0.261279    -3.23322  -4.00977e-05
3740  -0.00958784    0.261449    -2.52151  -4.02505e-05
3750  -0.00901598    0.261868    -2.20507  -3.18989e-05
3760  -0.00894986    0.261916    -2.20538  5.27024e-05
3770    -0.01007    0.261097    -1.57272  3.58058e-05
3780  -0.00966598    0.261392     -1.1773  8.70437e-05
3790  -0.0118109    0.259823    -1.57264  0.000214841
3800  -0.0139628    0.258249    -2.12655  7.05463e-05
3810  -0.0132218    0.258791    -2.44338  7.95517e-05
3820  -0.0155538    0.257085    -1.17776  0.000156571
3830  -0.0163533      0.2565   -0.940527  5.43605e-05
3840   -0.016641     0.25629    -2.28481  3.07579e-06
3850  -0.0164148    0.256455    -1.09871  7.1911e-05
3860  -0.0180793    0.255238   -0.465745  0.000115048
3870  -0.0187157    0.254772    -1.33564  3.37325e-06
3880  -0.0181467    0.255188    0.245965  -5.15962e-06
3890  -0.0186125    0.254847    -1.17753  -2.25716e-05
3900  -0.0176953    0.255518    -1.09832  -0.000117879
3910   -0.016255    0.256572    0.245964  -5.74507e-05
3920  -0.0165463    0.256359   -0.623928  -4.03848e-05
3930  -0.0154473    0.257163   -0.940527  -0.000144936
3940  -0.0136476     0.25848    -1.09871  -0.00027626
3950  -0.00992207    0.261205    -1.02004  -3.22798e-05
3960   -0.013002    0.258952   -0.940758  0.000142148
3970   -0.012765    0.259125    -1.09856  -6.19036e-06
3980  -0.0128782    0.259042    -1.96883  0.000134312
3990  -0.0154512     0.25716    -2.20561  9.93612e-05
4000  -0.0148654    0.257589    -2.12686  -1.46213e-05
4010  -0.0151588    0.257374     -1.3361  2.05672e-05
4020  -0.0152767    0.257288    -1.57334  3.83398e-05
4030  -0.0159256    0.256813    -1.01912  -2.35799e-05
4040  -0.0148051    0.257633    -1.33595  -0.000103362
4050  -0.0138584    0.258325   -0.703367  -3.26301e-05
4060  -0.0141525     0.25811    -1.57334  5.61775e-05
4070  -0.0149819    0.257503    -1.41492  -4.17639e-05
4080  -0.0133172    0.258721    -1.33626  -2.38325e-05
4090  -0.0145053    0.257852    -2.12679  0.000190597
4100  -0.0171292    0.255933    -1.33571  -1.50267e-05
4110  -0.0142047    0.258072    -1.57349  -0.000113371
4120  -0.0148618    0.257591    -2.28505  1.18449e-05
4130  -0.0144416    0.257899     -2.6011   -6.91e-05
4140  -0.0134798    0.258602    -2.20607  -6.92874e-05
4150  -0.0130559    0.258912    -1.81088  2.74787e-06
4160  -0.0135347    0.258562    -1.41515  0.000174729
4170  -0.0165505    0.256356    -1.73129  0.000166035
4180  -0.0168554    0.256133    -2.12663  -5.79925e-06
4190  -0.0164345    0.256441    -1.49444  -3.30579e-05
4200  -0.0161943    0.256617    -1.33649  8.53408e-05
4210  -0.0181413    0.255192    -1.65224  0.000140243
4220  -0.0189991    0.254565    -2.52221  7.67855e-05
4230   -0.019677    0.254069    -2.36371  4.95675e-05
4240  -0.0199905    0.253839    -1.96829  0.000132401
4250   -0.022325    0.252132   -0.940449  0.000270648
4260  -0.0254034     0.24988      -1.652  6.88312e-05
4270  -0.0237017    0.251125    -1.33587  -0.000124324
4280  -0.0229169    0.251699     -2.0475  0.000161771
4290  -0.0269371    0.248758    -2.20538  0.000254532
4300  -0.0280076    0.247975    -2.04696  -5.04801e-05
4310  -0.0259275    0.249496    -1.65154  -0.000161913
4320  -0.0247693    0.250344    -2.52174  5.02011e-06
4330  -0.0260279    0.249423    -1.57272  -2.31562e-05
4340  -0.0243062    0.250682    -2.52236  -4.28166e-06
4350  -0.0259422    0.249486      -2.443  -7.94784e-05
4360  -0.0227166    0.251845    -2.75921  -0.000144971
4370  -0.0230428    0.251607    -1.49382  -3.30742e-05
4380  -0.0220551    0.252329    -2.36418  -4.24891e-05
4390   -0.022193    0.252228    -2.68023  3.26729e-05
4400  -0.0227086    0.251851    -1.57249  6.10948e-05
4410  -0.0234149    0.251334    -2.52159  -7.11573e-05
4420  -0.0212854    0.252892    -2.68008  -7.11594e-05
4430  -0.0219917    0.252375    -1.88901  8.02504e-05
4440  -0.0228905    0.251718    -1.80957  -9.0698e-05
4450  -0.0201778    0.253702     -1.7309  -8.11731e-05
4460   -0.021267    0.252906    -2.04735  9.00319e-05
4470  -0.0219784    0.252385    -1.96806  -3.39358e-05
4480  -0.0205883    0.253402    -1.96829  -0.000158423
4490    -0.01881    0.254703    -2.44315  -0.000226156
4500  -0.0160652    0.256711    -1.49428  -0.0002269
4510   -0.014272    0.258023    -2.44362  4.19289e-05
4520  -0.0169037    0.256098    -2.99629  0.000244355
4530  -0.0191591    0.254448    -2.99629  8.09125e-05
4540   -0.018522    0.254914    -2.83834  -0.000121943
4550  -0.0167202    0.256232    -2.36441  4.27009e-05
4560   -0.019376    0.254289    -2.68008  6.18851e-05
4570  -0.0179579    0.255326    -2.60126  -4.46605e-05
4580  -0.0184828    0.254942    -2.28474  5.25864e-05
4590  -0.0190096    0.254557    -2.52182  -3.5207e-05
4600  -0.0177786    0.255458    -2.04804  -9.39449e-05
4610  -0.0171307    0.255931    -2.12671  -3.54717e-05
4620  -0.0170692    0.255976    -2.36387  3.66652e-06
4630  -0.0172041    0.255878    -2.52251  -8.49782e-05
4640  -0.0153696     0.25722    -2.68101  3.69297e-06
4650  -0.0172779    0.255824    -2.28512  6.26694e-05
4660   -0.016623    0.256303    -2.99714  -8.54202e-05
4670  -0.0155695    0.257074    -2.99706  -0.00010555
4680   -0.014512    0.257847    -2.99722  -2.64113e-05
4690  -0.0150413     0.25746    -2.68078  0.000132708
4700  -0.0171662    0.255906    -2.75937  7.31841e-05
4710   -0.016505    0.256389    -2.83888  -1.6259e-05
4720   -0.016841    0.256143    -2.83873  -2.64357e-05
4730  -0.0159763    0.256776    -3.23438  8.3976e-05
4740  -0.0185206    0.254915    -3.47138  0.000144311
4750  -0.0188625    0.254665    -2.68062  -4.63471e-05
4760  -0.0175936    0.255593    -3.23469  -5.64749e-05
4770   -0.017733    0.255491    -2.44377  0.000206125
4780  -0.0217161    0.252577    -2.28474  0.000155891
4790  -0.0208508     0.25321    -4.02483  -8.67034e-05
4800   -0.019982    0.253846    -2.99668  -8.70375e-05
4810  -0.0191101    0.254484    -3.55082  0.000116464
4820  -0.0223113    0.252142    -3.31258  0.000177776
4830  -0.0226656    0.251883    -4.02445  -0.00013842
4840  -0.0195429    0.254167    -3.23407  -9.76115e-05
4850  -0.0207133    0.253311    -3.07596  0.000127549
4860  -0.0220939    0.252301    -3.55013   0.0001589
4870  -0.0238913    0.250986    -2.91724  -1.58088e-05
4880  -0.0217777    0.252532    -2.60126  -0.000242766
4890   -0.019036    0.254538    -2.04796  5.65258e-05
4900  -0.0229082    0.251705     -2.3641  0.000149442
4910  -0.0220249    0.252351    -2.12671  -3.65534e-05
4920  -0.0221772     0.25224    -1.88978  -0.000172167
4930  -0.0185815     0.25487    -1.89024  -0.000172478
4940  -0.0187276    0.254763    -2.04835  -5.85343e-05
4950  -0.0174109    0.255727    -2.04796  -9.00441e-05
4960  -0.0169267    0.256081    -2.20584  -7.99978e-05
4970  -0.0158109    0.256897    -1.96907  8.80092e-05
4980  -0.0186869    0.254793    -1.65169  3.52803e-05
4990  -0.0165165    0.256381    -1.81034  -1.74487e-05
