Time   Number   
ps   
0          10          10
10           9           9
20          10          12
30          13          13
40          12          14
50           9          13
60          12          12
70           9           9
80          11          11
90           8          10
100           9          11
110          10          10
120          11          11
130          12          12
140           9          13
150          11          11
160          10          14
170           9          11
180          12          12
190          11          15
200           9           9
210          10          10
220          11          13
230          12          14
240          13          13
250          11          13
260          13          13
270          13          13
280          12          14
290          13          15
300          12          14
310          13          15
320          12          12
330          12          12
340          13          15
350          11          13
360          11          17
370          13          13
380          13          13
390          14          14
400          13          15
410          15          15
420          14          14
430          12          14
440          14          14
450          13          15
460          14          14
470          13          21
480          13          17
490          15          15
500          14          14
510          15          15
520          11          15
530          14          16
540          13          15
550          14          14
560          14          14
570          12          14
580          12          16
590          13          15
600          10          14
610          11          17
620          15          15
630          14          14
640          13          13
650          13          13
660          15          17
670          12          16
680          14          18
690          13          19
700          15          17
710          16          16
720          14          22
730          16          18
740          13          15
750          15          19
760          17          19
770          18          18
780          14          18
790          14          16
800          14          16
810          17          17
820          14          18
830          14          16
840          15          17
850          13          19
860          13          15
870          14          14
880          15          19
890          15          15
900          16          18
910          14          14
920          17          17
930          18          20
940          16          16
950          16          18
960          14          18
970          16          16
980          17          21
990          17          19
1000          14          14
1010          12          18
1020          13          15
1030          13          15
1040          13          13
1050          15          15
1060          15          17
1070          14          18
1080          16          16
1090          17          19
1100          14          16
1110          16          18
1120          19          19
1130          15          23
1140          14          16
1150          14          20
1160          16          16
1170          15          15
1180          12          16
1190          16          18
1200          17          21
1210          15          17
1220          14          16
1230          14          16
1240          13          17
1250          14          16
1260          12          12
1270          12          14
1280          13          17
1290          12          18
1300          12          16
1310          10          12
1320          14          18
1330          16          16
1340          14          18
1350          15          19
1360          14          16
1370          14          20
1380          15          17
1390          16          18
1400          14          18
1410          16          18
1420          12          16
1430          15          15
1440          14          20
1450          16          16
1460          13          17
1470          13          15
1480          15          15
1490          15          17
1500          13          15
1510          12          16
1520          12          12
1530          11          13
1540          14          18
1550          13          13
1560          17          17
1570          14          18
1580          15          19
1590          15          19
1600          14          14
1610          14          18
1620          12          16
1630          13          15
1640          14          14
1650          11          17
1660          12          14
1670          12          16
1680          12          12
1690          11          13
1700          13          15
1710          14          16
1720          10          12
1730          15          17
1740          12          14
1750          13          15
1760          12          14
1770          11          13
1780          12          18
1790          13          15
1800          14          14
1810          15          15
1820          13          15
1830          12          16
1840          11          13
1850          13          13
1860          13          13
1870          13          17
1880          12          12
1890          14          18
1900          12          16
1910          13          17
1920          12          12
1930          15          15
1940          14          14
1950          12          12
1960          13          15
1970          15          15
1980          12          18
1990          11          11
2000          12          14
2010          12          12
2020          15          15
2030          17          19
2040          14          14
2050          14          22
2060          15          15
2070          18          18
2080          13          17
2090          15          17
2100          14          14
2110          15          15
2120          14          14
2130          11          15
2140          13          13
2150          13          15
2160          13          15
2170          14          14
2180          14          16
2190          15          17
2200          13          17
2210          15          15
2220          15          15
2230          15          21
2240          14          22
2250          15          15
2260          16          16
2270          14          18
2280          14          14
2290          14          14
2300          13          19
2310          15          17
2320          16          18
2330          16          16
2340          15          15
2350          17          19
2360          15          19
2370          13          21
2380          13          13
2390          12          18
2400          11          17
2410          15          17
2420          13          13
2430          13          13
2440          13          13
2450          11          15
2460          13          13
2470          11          11
2480          10          12
2490          12          12
2500          14          14
2510          12          14
2520          12          12
2530          10          12
2540          11          11
2550          10          14
2560          12          12
2570          13          13
2580          11          15
2590          13          15
2600          14          14
2610          13          17
2620          13          15
2630          12          14
2640          14          16
2650          10          12
2660          10          12
2670          13          13
2680          12          14
2690          13          13
2700          15          15
2710          11          13
2720          12          14
2730           8          16
2740          10          10
2750          10          16
2760          13          13
2770          10          12
2780          12          12
2790          12          14
2800          10          10
2810          11          13
2820          10          12
2830           9           9
2840           8          10
2850           9          11
2860           6          10
2870           9          13
2880           9          13
2890          12          14
2900          13          13
2910          10          12
2920          12          12
2930          11          11
2940          10          14
2950          10          12
2960           9          13
2970          10          10
2980           8           8
2990          10          12
3000          13          13
3010          11          13
3020          10          12
3030          10          10
3040          11          13
3050          14          14
3060           9           9
3070          11          11
3080          11          15
3090          13          13
3100          13          13
3110           8          10
3120          12          16
3130          12          16
3140          10          12
3150           9          11
3160          10          16
3170          13          13
3180          10          16
3190          14          14
3200          13          15
3210          14          14
3220          11          13
3230          12          12
3240          14          16
3250          13          13
3260          12          12
3270          10          14
3280          10          10
3290          12          14
3300           9          11
3310          11          13
3320           9           9
3330          11          15
3340          11          15
3350          13          13
3360          11          13
3370           9          11
3380           7           7
3390           9          13
3400          13          15
3410          10          12
3420          11          11
3430          10          10
3440          13          13
3450          12          14
3460          12          16
3470          13          13
3480          12          16
3490          13          13
3500          13          13
3510          15          15
3520          13          15
3530          14          14
3540          14          16
3550          13          15
3560          13          15
3570          12          16
3580          13          15
3590          15          15
3600          12          16
3610          13          13
3620          13          15
3630          14          14
3640          14          16
3650          14          14
3660          14          14
3670          13          13
3680          14          14
3690          13          15
3700          13          15
3710          12          16
3720          12          16
3730          15          15
3740          15          17
3750          10          12
3760          12          14
3770          12          12
3780           9          11
3790           9          13
3800          12          14
3810          11          19
3820          15          17
3830          14          18
3840          12          12
3850          13          15
3860          10          12
3870          11          11
3880          11          11
3890          13          13
3900          12          16
3910          12          12
3920          11          11
3930           8          12
3940          11          11
3950          11          17
3960          12          14
3970          12          14
3980          11          11
3990          10          12
4000          12          16
4010          12          12
4020           8          12
4030          10          18
4040          10          14
4050          11          11
4060          11          11
4070          11          17
4080          11          17
4090          11          15
4100          14          16
4110           9          15
4120          10          12
4130          11          17
4140          10          10
4150           9          11
4160           9          13
4170          10          14
4180          11          13
4190          11          15
4200          11          13
4210          11          11
4220          11          15
4230           9          11
4240          11          13
4250          13          13
4260          12          12
4270          10          16
4280          11          15
4290          12          16
4300          12          18
4310          11          11
4320          10          14
4330          12          14
4340          10          12
4350          12          16
4360          12          14
4370          10          16
4380          10          12
4390          13          13
4400          11          15
4410          13          13
4420          12          16
4430          13          15
4440          10          14
4450          11          17
4460          10          12
4470          13          15
4480          10          14
4490          10          12
4500           9          11
4510          11          13
4520          14          14
4530          12          12
4540          13          13
4550          13          15
4560          11          17
4570          10          12
4580           8          10
4590          12          12
4600           9          11
4610           9           9
4620           7           9
4630           9          13
4640          10          12
4650          10          12
4660           9          11
4670          10          12
4680          11          17
4690          11          13
4700           9          11
4710          11          13
4720          10          10
4730          11          11
4740           9          11
4750          12          12
4760          11          11
4770          11          13
4780          11          11
4790          10          10
4800           8          14
4810          10          12
4820          13          13
4830          11          15
4840          13          13
4850          10          10
4860          11          11
4870          14          16
4880          13          13
4890          12          14
4900          12          14
4910          13          13
4920          14          14
4930          14          14
4940          13          13
4950          12          14
4960          12          12
4970          11          15
4980          12          16
4990          13          15
5000          14          14
5010          13          13
5020          13          13
5030          10          12
5040          16          16
5050          13          13
5060          13          15
5070          10          16
5080          13          19
5090          13          15
5100          13          15
5110          14          16
5120          14          16
5130          16          16
5140          14          14
5150          13          15
5160          13          13
5170          12          12
5180          15          15
5190          13          15
5200          15          17
5210          14          16
5220          15          15
5230          16          16
5240          14          22
5250          17          21
5260          17          19
5270          14          16
5280          16          16
5290          15          21
5300          15          19
5310          14          16
5320          14          14
5330          15          17
5340          13          13
5350          12          16
5360          14          14
5370          12          12
5380          12          16
5390          11          15
5400          13          15
5410          13          13
5420          13          13
5430          14          14
5440          13          13
5450          12          14
5460          13          17
5470          11          13
5480          12          12
5490          12          12
5500          12          12
5510          13          15
5520           9          11
5530          12          12
5540          12          12
5550          12          12
5560           9          11
5570          12          12
5580          11          13
5590          13          13
5600          13          13
5610          14          16
5620          10          14
5630          13          15
5640          11          15
5650          12          14
5660          13          13
5670          12          12
5680          12          14
5690          10          14
5700          11          15
5710          13          15
5720          15          15
5730          13          13
5740          12          12
5750          12          14
5760          12          12
5770          12          16
5780          12          12
5790          13          17
5800          14          16
5810          10          18
5820          14          14
5830          14          14
5840          13          13
5850          12          14
5860          11          11
5870          10          12
5880          11          13
5890          11          13
5900          12          12
5910           8          14
5920          10          10
5930          11          13
5940          12          14
5950          12          12
5960          13          13
5970          13          17
5980          11          11
5990          11          11
6000          12          14
6010          13          13
6020          11          13
6030          10          10
6040          12          12
6050          11          15
6060          11          13
6070          11          13
6080          13          13
6090          15          17
6100          14          14
6110          13          13
6120          12          16
6130          12          12
6140          13          13
6150          12          12
6160          13          15
6170           9          11
6180          12          14
6190          11          11
6200          12          14
6210          10          12
6220          12          12
6230          11          11
6240           9          11
6250          10          12
6260          12          12
6270          13          13
6280          13          13
6290          14          14
6300          11          13
6310          11          17
6320          16          18
6330          12          18
6340          15          15
6350          12          20
6360          16          16
6370          13          15
6380          15          15
6390          14          16
6400          14          16
6410          15          17
6420          13          13
6430          10          12
6440          13          13
6450          13          13
6460          12          12
6470          13          13
6480          11          15
6490          14          16
6500          15          17
6510          15          17
6520          15          17
6530          14          14
6540          16          20
6550          14          20
6560          15          17
6570          14          16
6580          17          19
6590          16          16
6600          14          16
6610          16          20
6620          16          20
6630          15          15
6640          16          16
6650          16          20
6660          16          20
6670          15          19
6680          15          19
6690          13          15
6700          17          17
6710          15          17
6720          15          21
6730          13          17
6740          15          21
6750          15          17
6760          14          18
6770          15          17
6780          16          16
6790          15          15
6800          16          16
6810          14          14
6820          11          15
6830          14          14
6840          15          15
6850          13          15
6860          13          13
6870          15          15
6880          13          13
6890          14          16
6900          14          14
6910          17          17
6920          15          15
6930          16          18
6940          16          18
6950          17          19
6960          16          18
6970          14          18
6980          15          15
6990          13          15
7000          15          17
7010          14          16
7020          12          16
7030          15          17
7040          13          13
7050          12          16
7060          14          14
7070          14          20
7080          15          15
7090          12          16
7100          11          13
7110          11          13
7120          13          19
7130          12          18
7140          13          19
7150          14          16
7160          17          17
7170          16          20
7180          18          20
7190          14          18
7200          15          21
7210          15          17
7220          14          20
7230          19          19
7240          16          18
7250          14          16
7260          13          19
7270          15          19
7280          15          17
7290          16          22
7300          14          14
7310          15          15
7320          14          16
7330          13          15
7340          12          20
7350          14          16
7360          14          16
7370          15          19
7380          13          21
7390          14          14
7400          14          14
7410          13          15
7420          14          18
7430          14          18
7440          16          18
7450          15          17
7460          16          18
7470          16          16
7480          14          16
7490          14          14
7500          15          17
7510          14          18
7520          12          16
7530          12          20
7540          12          16
7550          14          18
7560          15          17
7570          13          17
7580          14          18
7590          20          20
7600          15          19
7610          13          15
7620          12          18
7630          16          22
7640          16          18
7650          12          14
7660          18          22
7670          16          20
7680          13          17
7690          12          14
7700          13          15
7710          15          15
7720          12          18
7730          13          13
7740          14          14
7750          13          15
7760          12          16
7770          14          22
7780          14          26
7790          14          18
7800          14          16
7810          12          20
7820          13          17
7830          15          23
7840          15          21
7850          16          18
7860          16          18
7870          16          24
7880          13          17
7890          14          18
7900          17          17
7910          15          19
7920          14          18
7930          14          16
7940          11          13
7950          12          12
7960          14          16
7970          11          13
7980          11          11
7990          12          12
8000          11          21
8010          14          14
8020          15          17
8030          13          17
8040          14          18
8050          11          13
8060          11          15
8070          12          12
8080          11          13
8090          11          11
8100          10          16
8110           9          13
8120          11          17
8130          12          14
8140          13          15
8150          11          19
8160          12          14
8170          14          18
8180          15          17
8190          11          15
8200          11          17
8210          12          14
8220          14          14
8230          13          13
8240          13          13
8250          12          18
8260          14          16
8270          12          12
8280          13          15
8290          14          16
8300          12          12
8310          11          13
8320          10          12
8330          10          12
8340          11          11
8350          10          10
8360          11          13
8370          12          12
8380          13          15
8390          10          14
8400          12          12
8410          10          14
8420          10          16
8430          11          11
8440          11          11
8450          10          10
8460           9          15
8470          10          10
8480           9          13
8490          12          12
8500          12          14
8510          13          13
8520          10          14
8530          12          14
8540          10          14
8550          10          14
8560          12          14
8570          12          14
8580          15          15
8590          12          12
8600          10          14
8610          10          12
8620          13          13
8630          12          14
8640          11          11
8650          13          15
8660          13          19
8670          14          14
8680          13          15
8690          14          14
8700          10          14
8710          15          21
8720          14          16
8730          12          14
8740          13          15
8750          16          16
8760          14          18
8770          14          16
8780          13          15
8790          16          20
8800          16          16
8810          17          19
8820          14          20
8830          13          21
8840          12          12
8850          13          17
8860          13          17
8870          13          17
8880          16          22
8890          13          15
8900          15          17
8910          15          19
8920          16          22
8930          17          19
8940          14          20
8950          15          19
8960          16          18
8970          14          20
8980          14          20
8990          17          17
9000          14          20
9010          15          19
9020          17          17
9030          17          17
9040          14          18
9050          16          18
9060          18          20
9070          18          20
9080          13          17
9090          15          19
9100          16          18
9110          17          19
9120          15          19
9130          13          21
9140          15          21
9150          15          21
9160          15          19
9170          15          17
9180          21          25
9190          15          19
9200          15          17
9210          16          20
9220          14          16
9230          17          19
9240          14          16
9250          13          17
9260          14          20
9270          15          19
9280          12          12
9290          15          21
9300          15          21
9310          15          17
9320          19          21
9330          17          23
9340          14          24
9350          18          22
9360          17          17
9370          16          24
9380          18          22
9390          16          22
9400          16          20
9410          14          18
9420          15          23
9430          13          21
9440          17          19
9450          16          18
9460          15          15
9470          14          20
9480          15          23
9490          16          20
9500          16          22
9510          16          18
9520          14          18
9530          15          19
9540          15          17
9550          14          16
9560          15          19
9570          16          20
9580          13          19
9590          13          17
9600           8          14
9610          14          16
9620          12          12
9630          11          15
9640          12          20
9650          16          20
9660          15          19
9670          16          18
9680          16          20
9690          14          18
9700          16          16
9710          14          18
9720          16          18
9730          13          19
9740          16          16
9750          15          19
9760          18          18
9770          13          19
9780          15          19
9790          15          17
9800          15          17
9810          13          17
9820          12          20
9830          13          15
9840          11          15
9850          13          19
9860          14          16
9870          14          16
9880          13          17
9890          14          16
9900          12          16
9910          15          17
9920          13          15
9930          12          16
9940          11          17
9950          10          14
9960          12          14
9970          12          12
9980          12          12
9990          11          11
10000          12          14
