Time   C(t)   
ps   
0           1           1  1.36076e-09   0.0579071
10    0.427771     0.80313    -1.18745   0.0299354
20    0.401293     0.79402    0.484053  0.00196368
30    0.388498    0.789618   -0.147475  0.00137598
40    0.373773    0.784552   -0.629607  0.00079633
50    0.372571    0.784139    -1.11569   0.0008357
60    0.357059    0.778802   -0.817078  0.000948069
70     0.35361    0.777615    -2.45152  0.000568299
80    0.345693    0.774892    -1.41187  0.000973138
90    0.334147    0.770919   -0.334729  0.000421619
100    0.337261    0.771991    0.739408  0.000178196
110    0.330583    0.769693    0.850694  0.000476597
120    0.327729    0.768711    -1.19118  0.000173655
130     0.32711    0.768498    0.180367  0.000467876
140    0.318371    0.765492    0.700609  0.000623445
150    0.314641    0.764208    0.366388  0.000592858
160    0.306514    0.761413   -0.375376  0.000620654
170    0.302228    0.759938   -0.302055  -0.000155638
180    0.309627    0.762483   0.0286147  0.000435288
190    0.293522    0.756943    -1.30447  0.000821945
200    0.293188    0.756828    -2.93826  0.000168017
210    0.290162    0.755787    -2.97423  0.000421409
220     0.28476    0.753928    -2.34364  0.000211814
230    0.285925    0.754329    -1.15808  0.00034752
240    0.277809    0.751537    -1.86137  0.000369409
250    0.278537    0.751787    -3.01462  0.000435504
260    0.269099     0.74854   -0.600159  0.000354667
270    0.271444    0.749347   -0.749737  0.000361405
280    0.261871    0.746054    -1.08189  8.49009e-05
290    0.269746    0.748763    -1.12185  -0.000304987
300    0.267971    0.748152    -1.79029  0.000487512
310    0.259996    0.745408    -1.04752  0.000346696
320    0.261037    0.745767    -1.30867  0.000146335
330    0.257069    0.744401    -2.23569  0.000255473
340    0.255928    0.744009     -2.9421  0.000283399
350    0.251401    0.742451    -1.67908  0.000431354
360      0.2473    0.741041    -1.38174  0.000104088
370    0.249319    0.741735    -2.23707  0.000159346
380    0.244114    0.739944   -0.455076  0.000329268
390    0.242734     0.73947   -0.493005  -8.68671e-05
400    0.245851    0.740542    -2.01631  7.24785e-05
410    0.241284    0.738971    -2.38628  0.000726536
420     0.23132    0.735543    -1.93958  0.000336961
430    0.234545    0.736652    -2.83147  2.24337e-06
440    0.231275    0.735527    -1.86622  1.91405e-06
450    0.234507    0.736639    -2.16531  0.000217618
460    0.226923     0.73403   -0.902178  0.000422008
470    0.226067    0.733735    -1.97936  -0.00017985
480     0.23052    0.735267    -3.05697  0.000224391
490    0.221579    0.732191    -2.27616  0.000584524
500    0.218829    0.731245    -3.24028  0.000191986
510    0.217739     0.73087     -3.0911  0.000109199
520    0.216645    0.730494    -2.98086  -1.79335e-06
530    0.217775    0.730883    -2.75963  0.000198742
540    0.212671    0.729127    -2.27565  0.000360444
550    0.210566    0.728402    -3.24205  -0.000157569
560    0.215822    0.730211    -1.98117  0.000127381
570    0.208018    0.727526    -4.35484  0.000294722
580    0.209928    0.728183    -1.64724  -6.24128e-05
590    0.209267    0.727955     -2.8719  0.000520101
600    0.199526    0.724604    -3.57591  0.000425386
610    0.200759    0.725028    -5.32103  4.50015e-05
620    0.198626    0.724294    -4.35517  -2.81356e-05
630    0.201322    0.725222     -6.5834  -5.04762e-05
640    0.199635    0.724642     -6.4344  0.000399859
650    0.193324    0.722471     -5.8016  6.77668e-05
660     0.19828    0.724176    -5.35921  -0.000371879
670    0.200762     0.72503    -5.47162  2.84821e-05
680     0.19771     0.72398    -4.65248  0.000243241
690    0.195897    0.723356    -4.76449  -5.63756e-05
700    0.198838    0.724367    -4.87802  -9.59106e-05
710    0.197815    0.724016    -5.36091  0.000249903
720     0.19384    0.722648    -3.68963  0.000210532
730    0.193605    0.722567    -4.72837  0.000171369
740    0.190412    0.721469    -4.24628  0.000222781
750    0.189149    0.721034    -5.65721  0.000274668
760    0.184919    0.719579    -3.65177  0.000252328
770    0.184103    0.719298    -5.95299  4.16666e-05
780    0.184085    0.719292    -5.47162  1.89014e-05
790    0.183725    0.719168    -3.76429  -0.000118476
800    0.186455    0.720107     -3.7653  -0.000181608
810    0.187357    0.720418     -3.5795  -4.43779e-05
820    0.187343    0.720413    -5.13892  0.000518395
830    0.176989    0.716851    -4.35785  0.000628209
840    0.174778     0.71609    -4.43193  0.000359456
850      0.1698    0.714377    -4.76496  -0.000314152
860    0.181061    0.718252     -5.2509  -0.000290867
870    0.175617    0.716379    -4.91581  0.000285072
880     0.17536     0.71629    -5.36128   4.896e-05
890    0.174638    0.716042    -4.47113  3.16963e-05
900    0.174726    0.716072    -4.39676  5.49458e-05
910    0.173539    0.715664    -5.13892  5.50501e-05
920    0.173625    0.715693    -5.36149  0.000212022
930    0.169299    0.714205    -5.54748  0.000380852
940    0.166008    0.713073    -4.65632  0.000335176
950    0.162595    0.711899    -4.87918  0.000149436
960    0.163019    0.712044    -4.84201  0.00036585
970    0.155278    0.709381    -4.84111  0.000155967
980      0.1599    0.710971    -4.28551  -8.85561e-05
990    0.157049    0.709991    -4.39796  8.05609e-05
1000    0.158289    0.710417    -4.21237  -0.000293978
1010    0.162929    0.712013    -2.91475  0.000168943
1020     0.15491    0.709255    -3.61877  0.000409344
1030    0.154742    0.709197     -3.9907  1.68398e-05
1040    0.154573    0.709139    -3.06281  -5.3785e-05
1050    0.155818    0.709567    -2.50616  -3.61659e-05
1060    0.155296    0.709387    -4.39948  0.000252735
1070    0.150763    0.707828     -4.7321  0.000678243
1080    0.141732    0.704721    -5.84297  7.05905e-05
1090    0.149351    0.707342    -5.73506  -0.000289325
1100    0.147518    0.706711    -4.50982  0.000248638
1110    0.144378    0.705631    -3.76791  7.11702e-05
1120    0.146095    0.706222    -2.87791  0.000309189
1130    0.138194    0.703504    -3.87829  0.000428236
1140     0.13753    0.703275    -4.91831  -0.000213209
1150    0.142459    0.704971    -5.77364  0.000108393
1160    0.135362    0.702529    -4.65904  -0.000148526
1170    0.145429    0.705993    -5.14327  -2.84731e-05
1180    0.135931    0.702725    -4.80742  0.000275274
1190    0.139924    0.704099    -4.51171  -0.000112387
1200    0.138179    0.703498    -3.13773  0.000156652
1210    0.136791    0.703021    -3.99219  -0.000124904
1220    0.140677    0.704358    -6.18209  6.12952e-05
1230    0.135565    0.702599    -4.47472  0.000608086
1240    0.128516    0.700174    -4.84462  0.00010375
1250     0.13349    0.701885    -5.03264  -0.000299148
1260    0.134499    0.702232    -4.32753  0.000291231
1270    0.127665    0.699881    -3.47329  0.000363952
1280     0.12722    0.699728    -2.58187  -6.42322e-05
1290     0.12895    0.700323    -3.92003  -0.000142965
1300    0.130079    0.700712    -3.47474  0.000111234
1310    0.126725    0.699558    -3.69745  0.000517858
1320    0.119722    0.697148    -4.40053  0.000403427
1330    0.118657    0.696782    -4.14235  0.000179598
1340     0.11613    0.695913    -4.84636  -2.10237e-05
1350    0.119077    0.696927    -2.88078  -0.00014267
1360    0.118983    0.696894    -4.29182  -0.000112673
1370     0.12133    0.697702    -3.55118  -0.000100571
1380    0.120995    0.697586    -2.99413  0.000162109
1390    0.118088    0.696586    -2.62209  0.000505358
1400    0.110887    0.694109    -3.36392  0.000267115
1410    0.112746    0.694748     -4.1802  -0.000179893
1420    0.114485    0.695347    -2.99337  -0.000211026
1430    0.116966      0.6962    -4.55319  -6.9984e-05
1440    0.115885    0.695828    -3.92224  0.000299279
1450    0.110981    0.694141    -3.73636  0.000170252
1460     0.11248    0.694657    -3.70039  1.66666e-05
1470    0.110648    0.694026    -4.21944  0.000158704
1480    0.109306    0.693565    -4.85049  2.91057e-05
1490    0.110065    0.693826    -4.07182  -0.000169004
1500    0.112686    0.694728    -6.00266  6.02473e-05
1510    0.108861    0.693412     -5.0739  0.000432715
1520    0.104032     0.69175    -4.92512  0.000365269
1530    0.101555    0.690898    -5.18406  -0.000318622
1540    0.110404    0.693943    -5.52053  -7.00802e-06
1550    0.101695    0.690947    -3.14345  6.06023e-05
1560    0.109192    0.693526    -2.47813  -2.57794e-05
1570    0.102211    0.691124    -3.32929  0.000642623
1580   0.0963395    0.689104    -3.84776  -6.35043e-05
1590    0.103481    0.691561    -4.40564  -0.000106739
1600   0.0984742    0.689838    -3.21851  -0.000126593
1610    0.106013    0.692432    -2.66411  -0.000113573
1620    0.100746     0.69062    -3.96183  0.000143459
1630    0.103144    0.691445    -1.55005  6.23178e-05
1640   0.0994994    0.690191    -3.81305  0.000200856
1650   0.0991265    0.690063    -2.18067  0.000214187
1660   0.0952156    0.688717    -4.25867  0.000106972
1670   0.0969871    0.689327    -4.74164  -0.00015828
1680   0.0983812    0.689806    -4.40857  0.000196282
1690   0.0930614    0.687976    -3.85135   0.0002788
1700   0.0928052    0.687888    -2.66291  -9.50702e-05
1710   0.0949628     0.68863    -4.33428  -0.000285999
1720   0.0985252    0.689856     -1.9602  7.00705e-05
1730   0.0935614    0.688148    -3.36943  0.000241873
1740   0.0936877    0.688192    -4.48266  -0.000133921
1750   0.0962399     0.68907     -2.9996  0.000351756
1760   0.0866526    0.685771    -4.33279  0.00025588
1770   0.0911223    0.687309    -3.81487  -0.000396324
1780   0.0945791    0.688498    -3.92673  -0.000147114
1790   0.0940645    0.688321    -3.00004  0.000334093
1800   0.0878972    0.686199    -3.59276  -6.42233e-05
1810    0.095349    0.688763    -4.55902  -0.000391932
1820   0.0957359    0.688896    -1.85051  0.000116025
1830   0.0930285    0.687965     -3.8165  0.000335583
1840   0.0890242    0.686587    -2.96283  -0.000103187
1850   0.0950923    0.688675    -3.22388  -0.000283989
1860    0.094704    0.688541    -2.85227  0.000220277
1870   0.0906867    0.687159    -3.33455  -0.00029189
1880    0.100542     0.69055    -1.96328  -0.000174843
1890   0.0941836    0.688362    -1.62765  0.000480523
1900   0.0909313    0.687243    -1.40522  9.12588e-05
1910   0.0923584    0.687734    -2.74138  -0.000201609
1920   0.0949635    0.688631    -2.51961  -0.000306468
1930   0.0984878    0.689843   -0.887627  7.84382e-05
1940   0.0933948    0.688091     -1.1837  0.000261311
1950   0.0932615    0.688045    -1.74136  0.000111581
1960   0.0911632    0.687323    -2.63184  0.000288797
1970   0.0874856    0.686058    -2.89092  0.000289429
1980   0.0853746    0.685332    -2.40702  -0.000124003
1990   0.0899657    0.686911    -1.81425  -0.000314819
2000   0.0916709    0.687498    -4.26501  0.000165479
2010   0.0866561    0.685772    -2.37159  0.000574666
2020   0.0801776    0.683544    -2.77761  -0.000177415
2030   0.0902044    0.686993    -2.22437  -0.000375317
2040    0.087684    0.686126    -3.11437  0.000364975
2050   0.0829049    0.684482    -2.40789  0.000160134
2060   0.0844813    0.685024    -2.26099  -0.000257491
2070   0.0880547    0.686254    -1.89159  4.12416e-05
2080   0.0836565     0.68474    -3.07872  0.000313858
2090   0.0817776    0.684094    -1.40751  -7.85768e-05
2100    0.085228    0.685281    -3.22728  0.000188598
2110   0.0780056    0.682796    -2.92965  0.000335436
2120   0.0785193    0.682973    -2.15133  0.000303315
2130   0.0719393    0.680709    -2.81778  0.000102606
2140   0.0764672    0.682267    -2.56018  -0.000231919
2150   0.0765777    0.682305     -2.0407  2.25224e-05
2160   0.0760167    0.682112    -2.44879  0.000291595
2170   0.0707458    0.680299    -1.00094  0.000561482
2180   0.0647871    0.678249    -1.74245  7.0573e-05
2190   0.0693343    0.679813    -1.37273  0.000186208
2200   0.0610629    0.676967     -2.1125  3.71013e-05
2210   0.0685923    0.679558    -1.74394  -0.00021229
2220   0.0653087    0.678428    -2.11587  -2.37439e-05
2230   0.0690672    0.679721    -1.00341  -0.000104798
2240   0.0674047    0.679149     -2.5996  0.000248058
2250    0.064106    0.678014    -3.97227  6.48383e-05
2260   0.0661079    0.678703    -1.41164   5.848e-05
2270   0.0629364    0.677612    -1.81958  0.000406277
2280   0.0579824    0.675907    -2.63542  -0.000241803
2290   0.0677725    0.679276    -3.12075  -3.6235e-05
2300   0.0587071    0.676157    -2.89694  0.000407663
2310   0.0596192    0.676471    -2.97095  0.000299634
2320   0.0527144    0.674095    -2.59855  8.01621e-05
2330    0.058016    0.675919    -1.78299  -0.000207682
2340    0.056868    0.675524    -2.52573  -5.71115e-05
2350   0.0591582    0.676312    -3.23142  0.000225648
2360   0.0523551    0.673971    -3.78766  0.000377457
2370   0.0516091    0.673715    -4.01046  -9.1172e-05
2380   0.0541785    0.674599    -3.41765  -9.12156e-05
2390   0.0534334    0.674342    -3.45362  -3.62523e-05
2400   0.0549036    0.674848    -3.00913  4.01592e-05
2410   0.0526302    0.674066     -1.6733  0.000102598
2420   0.0528516    0.674142    -3.93764  0.000123907
2430   0.0501521    0.673214    -2.86166  0.000158852
2440   0.0496746    0.673049    -2.97294  7.56925e-05
2450   0.0486382    0.672693    -2.49045  -2.19507e-05
2460   0.0501136      0.6732      -3.493  0.000104105
2470   0.0465561    0.671976    -3.75242  -7.10752e-05
2480   0.0515351    0.673689    -4.53247  -7.07287e-05
2490   0.0479707    0.672463    -2.86303  0.000406095
2500   0.0434132    0.670895    -2.89901  0.000146906
2510   0.0450325    0.671452    -2.60257  0.000133653
2520   0.0407401    0.669975    -2.11935  0.000309881
2530   0.0388349     0.66932    -2.49078  -0.000197521
2540   0.0446906    0.671335    -2.60358  -0.000459057
2550   0.0480161    0.672479    -4.57207  2.80229e-05
2560   0.0441301    0.671142    -3.53202  0.000389117
2570   0.0402337    0.669801    -4.90466  0.000255317
2580   0.0390238    0.669385    -5.23812  5.71722e-05
2590   0.0390903    0.669408    -5.72072  -9.92369e-05
2600   0.0410085    0.670068    -2.97447  -0.000113643
2610   0.0413631     0.67019    -3.53169  -5.69036e-05
2620   0.0421466    0.670459    -4.57058  -0.000135688
2630   0.0440769    0.671123    -4.27516  0.000135992
2640   0.0394267    0.669524     -4.1625  6.95605e-06
2650   0.0439378    0.671076    -4.64543  -0.000164673
2660   0.0427202    0.670657     -4.1266  -2.17775e-05
2670   0.0443733    0.671225    -4.79388  0.000259024
2680   0.0375397    0.668874    -4.05168  0.000223075
2690   0.0399118     0.66969    -3.30981  -0.000165323
2700   0.0408462    0.670012    -5.42566   0.0001882
2710   0.0361478    0.668396    -6.46386  0.000369202
2720   0.0334621    0.667472    -5.01631  -0.000165791
2730   0.0394636    0.669536     -5.0918  -0.000252727
2740   0.0385167     0.66921    -6.68691  -0.000224842
2750   0.0439605    0.671083    -5.05562  0.000138746
2760   0.0357417    0.668256    -5.35089  0.000517009
2770   0.0336203    0.667526    -5.38781  0.000219775
2780   0.0313462    0.666744    -5.38828  0.000140046
2790   0.0308194    0.666562    -4.34812  -0.000152078
2800   0.0343878     0.66779     -4.1642  -0.000335418
2810   0.0375278     0.66887    -4.49831  5.97535e-05
2820   0.0331927    0.667379    -4.23872  0.000382689
2830    0.029874    0.666237     -4.4965  -0.000101714
2840    0.035227    0.668079    -4.79522  -5.71981e-05
2850   0.0310179    0.666631    -4.57192  8.95089e-05
2860   0.0334368    0.667463     -4.7215  -0.000264395
2870   0.0363058     0.66845    -6.05672  -0.000139327
2880   0.0362234    0.668422    -5.61299  -0.000147305
2890   0.0392519    0.669463    -4.61152  0.000134398
2900   0.0335354    0.667497    -5.42762  4.50186e-05
2910   0.0383516    0.669154    -5.94801  6.07671e-05
2920   0.0323201    0.667079    -7.05989  0.000455012
2930   0.0292513    0.666023    -6.20612  -0.000147799
2940    0.035276    0.668096    -6.35606  -0.000259657
2950   0.0344445    0.667809    -5.94804  3.83919e-05
2960   0.0345082    0.667831    -5.31731  0.000308305
2970   0.0282784    0.665688    -5.24272  0.000151177
2980   0.0314847    0.666791    -5.65179  -0.000193354
2990   0.0321454    0.667019     -5.9855  0.000114413
3000   0.0291964    0.666004    -5.53985  0.000280264
3010   0.0265402     0.66509    -5.35437  0.000115089
3020   0.0268946    0.665212    -5.01993  0.000145849
3030   0.0236232    0.664087    -5.46454  -0.000179434
3040   0.0304833    0.666447    -4.94803  -0.000111001
3050   0.0258432     0.66485    -3.83328  0.000214231
3060   0.0261987    0.664973    -6.32088  9.97912e-06
3070   0.0256436    0.664782    -4.98345  -0.00013471
3080   0.0288929      0.6659    -3.83426  0.000231088
3090   0.0210218    0.663192    -5.42867  0.000383633
3100   0.0212202     0.66326    -7.32148  0.000201852
3110   0.0169848    0.661803     -4.5745  8.72914e-05
3120   0.0194744    0.662659     -5.9859  -1.1651e-05
3130   0.0172178    0.661883    -6.20887  0.000210662
3140   0.0152611     0.66121    -7.06286  0.000172833
3150   0.0137611    0.660694    -6.84011  0.000458286
3160  0.00609541    0.658056    -7.13459  0.00035121
3170  0.00673695    0.658277    -8.36066  -7.19329e-05
3180  0.00753407    0.658551    -7.65607  -0.000250007
3190   0.0117371    0.659997    -6.43199  -0.000258262
3200   0.0126993    0.660328    -7.21103  -2.65331e-05
3210   0.0122677     0.66018    -6.72991  0.000369505
3220  0.00530921    0.657786    -6.17199  0.000424572
3230   0.0037763    0.657258    -5.72572  -0.000641246
3240   0.0181341    0.662198     -5.7672  9.15446e-05
3250  0.00194541    0.656628    -4.57678  0.000534966
3260   0.0074348    0.658517    -4.72665  -0.000361873
3270  0.00918288    0.659118    -4.76342  0.00016197
3280  0.00419539    0.657403    -5.13462  0.000389602
3290  0.00139084    0.656438    -6.13599  0.000147209
3300   0.0012512     0.65639    -6.47071  0.000132111
3310  -0.00125138    0.655529    -5.54318   6.133e-06
3320  0.00112854    0.656347    -5.95152  -8.04047e-05
3330  0.000356719    0.656082      -5.098  0.000298811
3340  -0.00484767    0.654291     -5.0976  0.000259821
3350  -0.0048397    0.654294    -7.25041  0.000149895
3360  -0.00784557     0.65326    -5.54304  0.000110394
3370  -0.00704759    0.653535    -6.50788  1.55318e-05
3380  -0.00815621    0.653153    -7.21288  5.5223e-05
3390  -0.00815205    0.653155    -6.95335  -8.33329e-06
3400  -0.00798954     0.65321    -6.21173  -6.4232e-05
3410  -0.00686741    0.653597    -6.80606  0.00019176
3420  -0.0118247    0.651891    -5.54351  4.75568e-05
3430  -0.00781854    0.653269    -5.98956  -0.000192479
3440  -0.00797516    0.653215    -7.25247  5.58987e-05
3450  -0.00893652    0.652885    -7.21578  0.000217089
3460  -0.0123169    0.651722    -6.50911  7.23747e-05
3470   -0.010384    0.652387    -7.69754  -0.000242072
3480  -0.00747551    0.653387    -6.36185  8.09939e-06
3490   -0.010546    0.652331     -7.6239  7.67494e-06
3500  -0.00762901    0.653334    -5.61926  -0.0006168
3510  0.00179001    0.656575    -6.17844  -4.106e-05
3520  -0.00680781    0.653617    -6.80754  0.000494721
3530  -0.0081044    0.653171    -6.32505  0.000268518
3540  -0.0121782    0.651769    -6.58446  0.000244636
3550  -0.0129971    0.651488    -7.51218  -5.69989e-05
3560  -0.0110382    0.652162    -6.54744  -0.00023716
3570  -0.00825392     0.65312    -8.18113  8.21546e-05
3580  -0.0126813    0.651596    -7.29011  6.54534e-05
3590  -0.00956299    0.652669     -7.4027  -5.72327e-05
3600  -0.0115366     0.65199    -6.73426  7.40119e-05
3610  -0.0110432     0.65216    -7.36564  -0.000264031
3620  -0.00625601    0.653807    -7.06902  7.45316e-05
3630  -0.0125339    0.651647    -5.58332  0.000297503
3640  -0.0122061     0.65176    -7.47668  -4.94279e-05
3650  -0.0115453    0.651987    -6.88319  -4.95578e-05
3660  -0.0112149    0.652101    -6.43851  0.000183245
3670  -0.0152102    0.650726     -7.0316  0.000100146
3680  -0.0132178    0.651412    -8.14621  0.000109294
3690  -0.0173961    0.649974    -6.99447  0.000150952
3700  -0.0162369    0.650373    -8.47985  -0.00041759
3710  -0.00904428    0.652848    -8.07299  0.000160281
3720  -0.0194425     0.64927    -7.88578  0.000108999
3730  -0.0112243    0.652098    -9.40919  6.03426e-05
3740  -0.0206493    0.648855    -8.36809  0.000396211
3750  -0.0191485    0.649371    -8.36794  -0.000150302
3760  -0.0176433    0.649889    -9.18535  -0.00031138
3770  -0.0129209    0.651514     -8.0726  -0.000185151
3780  -0.0139403    0.651163     -8.2951  0.000237879
3790  -0.0176785    0.649877     -8.6667  0.000162022
3800  -0.0171807    0.650048    -9.22386  8.62606e-05
3810  -0.0194037    0.649284    -9.77989  0.000401703
3820  -0.0252148    0.647284    -9.59303  0.000129538
3830  -0.0219945    0.648392    -9.66835  -0.000553426
3840  -0.0141463    0.651092    -9.11286  -0.000503409
3850  -0.0119263    0.651856    -9.70661  0.000249409
3860  -0.0191345    0.649376    -10.0404  0.000137689
3870  -0.0146801    0.650909     -8.6688  0.00042316
3880  -0.0275977    0.646464    -8.29469  0.000104192
3890  -0.0167639    0.650192     -7.8143  -0.0002994
3900  -0.0216097    0.648525    -7.92537  -7.64029e-06
3910  -0.0166111    0.650244    -7.96269  -0.000318726
3920  -0.0152351    0.650718    -8.70528  4.44642e-05
3930  -0.0175004    0.649938    -7.36876  0.000322433
3940  -0.0216838    0.648499    -8.07364  -0.000120737
3950  -0.0150856    0.650769    -8.00043  6.29152e-05
3960  -0.0229421    0.648066    -9.37253  0.000402595
3970  -0.0231375    0.647999    -8.25934  0.000247053
3980  -0.0278832    0.646366    -8.22185  8.97602e-05
3990  -0.0249327    0.647381    -9.29837  -0.000137508
4000   -0.025133    0.647312    -8.77922  -0.000287749
4010  -0.0191778    0.649361    -8.52042  0.00031954
4020  -0.0315238    0.645114    -9.22368  0.000354406
4030  -0.0262659    0.646923    -8.92822  -0.000358807
4040  -0.0243477    0.647583    -8.25985  -0.000236363
4050  -0.0215386    0.648549    -8.85417  0.000224037
4060  -0.0288284    0.646041     -9.4477  -3.36622e-05
4070  -0.0208654    0.648781    -9.67179  -0.000334977
4080  -0.0221289    0.648346    -9.93052  -3.38702e-05
4090   -0.020188    0.649014    -10.7114  2.88026e-05
4100  -0.0227049    0.648148    -10.0437  1.95512e-05
4110   -0.020579    0.648879    -10.9348  0.000163304
4120   -0.025971    0.647024    -10.6369  0.000486292
4130  -0.0303048    0.645533    -12.7514  0.000227389
4140  -0.0305188    0.645459    -11.5279  7.54238e-05
4150  -0.0318133    0.645014     -11.564  -0.000447536
4160  -0.0215681    0.648539    -11.0097  -0.000276401
4170  -0.0262853    0.646916    -10.4153  0.000445388
4180  -0.0304758    0.645474    -12.5676  0.00018406
4190  -0.0299665    0.645649    -10.6377  9.42819e-05
4200  -0.0323615    0.644826    -11.6394  -0.00029681
4210  -0.0240303    0.647692    -10.5653  -0.000160212
4220  -0.0291572    0.645928    -9.22839  -7.9807e-05
4230  -0.0224342    0.648241    -9.52562  -0.000197928
4240  -0.0251987     0.64729      -9.934  0.000313563
4250  -0.0287054    0.646083    -10.8985  0.000250344
4260  -0.0302056    0.645567    -9.93371  -5.19659e-05
4270  -0.0276661    0.646441    -10.9734  -2.41769e-05
4280   -0.029722    0.645734    -11.5298  -0.000255265
4290  -0.0225608    0.648197    -11.5678  -0.000477136
4300  -0.0201793    0.649017    -11.5679  -0.000155231
4310  -0.0194562    0.649265    -11.7165  0.000103733
4320   -0.022254    0.648303    -11.0112  8.52125e-05
4330  -0.0211604    0.648679     -10.677  -0.000193337
4340  -0.0183872    0.649633    -9.89904  0.000318856
4350  -0.0275375    0.646485    -11.3824  0.000178888
4360   -0.021965    0.648402    -10.9378  -0.000155976
4370   -0.024418    0.647558    -9.45346  7.70264e-05
4380  -0.0235055    0.647872    -10.4556  -0.000222841
4390  -0.0199612    0.649092    -10.6044  2.1171e-05
4400  -0.0239289    0.647727     -9.5274  -1.71343e-05
4410  -0.0196185     0.64921    -9.52885  -2.59094e-05
4420  -0.0234108    0.647905     -10.418  -0.000102373
4430  -0.0175711    0.649914    -10.6052  -0.000196603
4440  -0.0194787    0.649258    -11.6437  -0.000216977
4450  -0.0132315    0.651407    -10.0867  -8.39217e-05
4460  -0.0178003    0.649835    -9.75168  8.62346e-05
4470  -0.0149562    0.650814    -10.0488  -0.000256296
4480  -0.0126744    0.651599    -10.2721  -0.000142558
4490  -0.0121051    0.651795    -10.1605  -7.62208e-05
4500  -0.0111499    0.652123     -10.643  -0.000412271
4510  -0.00385964    0.654631    -12.2025  -0.000115176
4520  -0.00884643    0.652916    -12.2765  0.000663248
4530  -0.0171246    0.650068    -12.5347  0.000318041
4540  -0.0152073    0.650727    -11.3852  -0.000366031
4550  -0.00980397    0.652586    -10.6816  0.000165531
4560  -0.0185179    0.649588    -12.0542  0.000397606
4570  -0.0177561     0.64985    -10.7179  -0.000319228
4580  -0.0121333    0.651785    -11.0152  -0.000193328
4590  -0.0138895    0.651181    -11.3867  -4.84664e-05
4600   -0.011164    0.652118    -10.6076  -1.89015e-05
4610  -0.0135115    0.651311    -11.1265  3.93275e-05
4620  -0.0119505    0.651848    -12.5751  -0.000499675
4630  -0.00351799    0.654749    -12.2049  -4.88302e-05
4640  -0.0109739    0.652184    -11.2014  0.000205473
4650  -0.00762745    0.653335    -10.9428  9.93581e-06
4660  -0.0111726    0.652115    -12.0931  4.88995e-05
4670  -0.00860544    0.652999    -11.4997  -0.000118632
4680     -0.0088    0.652932    -11.6105  -0.000377292
4690  -0.00105959    0.655595    -11.7599  -0.000199089
4700  -0.00481822    0.654302     -11.389  0.00044628
4710  -0.00998519    0.652524    -10.4968  -0.000200544
4720  -0.000807339    0.655681     -11.946  -0.000359872
4730  -0.00278775       0.655     -10.535  0.000348646
4740  -0.00778026    0.653282     -11.165  0.000189196
4750  -0.00657167    0.653698    -10.1633  -9.09383e-05
4760  -0.00596149    0.653908    -10.5718  -0.00034318
4770  0.000291924     0.65606    -12.1695  -0.000333859
4780  0.000715691    0.656205    -12.6517  0.000210281
4790  -0.00391369    0.654613    -11.7599  0.000281512
4800  -0.00491455    0.654268    -10.9063  1.90487e-05
4810  -0.00429466    0.654482    -10.9437  0.000263321
4820   -0.010181    0.652457    -11.0542  0.000172001
4830  -0.00773469    0.653298    -12.5024  -0.000398143
4840  -0.0022181    0.655196    -12.8001  -0.000573254
4850  0.00373039    0.657243    -13.2467  0.000182838
4860  -0.00587487    0.653938    -13.3198  0.000171802
4870  0.00029435     0.65606    -13.2827  -0.00038152
4880  0.00175553    0.656563    -13.0977  0.000286553
4890  -0.00543672    0.654089    -12.9109  -6.43792e-05
4900  0.00304311    0.657006    -13.3208  -0.000156218
4910  -0.00231235    0.655164    -13.3204  0.000173656
4920  -0.000430003    0.655811    -13.8779  -0.00031326
4930  0.00395284    0.657319    -13.8045  -0.000158124
4940  0.00273248    0.656899    -13.3217  0.000216206
4950  -0.000371272    0.655831    -13.2104  3.92062e-05
4960  0.00194836     0.65663    -12.6911  0.00012363
4970  -0.00284388    0.654981    -13.2099  0.000144437
4980  -0.000940394    0.655636    -13.6548  -0.000201237
4990  0.00118086    0.656365    -13.6562  -0.000546912
