Time   Number   
ps   
0          28          25
10          28          25
20          25          27
30          28          29
40          27          30
50          27          28
60          32          23
70          27          23
80          30          26
90          28          27
100          28          21
110          28          30
120          30          24
130          29          26
140          28          34
150          27          22
160          28          26
170          31          19
180          28          33
190          29          22
200          28          30
210          29          29
220          27          27
230          26          29
240          27          37
250          28          27
260          28          28
270          28          26
280          28          28
290          25          25
300          24          29
310          28          30
320          30          27
330          30          31
340          29          29
350          29          27
360          30          22
370          32          30
380          27          32
390          30          29
400          31          29
410          28          26
420          28          29
430          26          26
440          29          27
450          31          27
460          30          27
470          31          28
480          28          34
490          32          25
500          30          23
510          28          31
520          28          29
530          31          29
540          29          26
550          28          25
560          29          31
570          30          24
580          31          28
590          30          31
600          31          25
610          27          30
620          29          29
630          30          28
640          33          25
650          27          34
660          28          32
670          32          27
680          30          25
690          27          25
700          29          29
710          28          28
720          29          27
730          28          30
740          26          34
750          31          25
760          30          33
770          27          32
780          28          34
790          24          33
800          30          25
810          24          31
820          30          28
830          33          27
840          28          28
850          28          27
860          31          25
870          30          25
880          25          35
890          28          28
900          31          30
910          29          32
920          25          29
930          28          32
940          28          33
950          29          31
960          31          27
970          33          25
980          24          30
990          31          31
1000          30          28
1010          30          27
1020          29          30
1030          27          25
1040          28          25
1050          25          32
1060          27          29
1070          31          24
1080          26          28
1090          30          21
1100          27          31
1110          28          33
1120          28          27
1130          32          25
1140          30          28
1150          29          35
1160          28          29
1170          32          29
1180          25          35
1190          32          25
1200          25          33
1210          29          34
1220          27          30
1230          26          34
1240          26          31
1250          29          36
1260          28          31
1270          31          22
1280          30          35
1290          26          32
1300          30          29
1310          28          32
1320          30          31
1330          31          33
1340          30          29
1350          29          23
1360          30          36
1370          29          34
1380          28          32
1390          28          29
1400          26          31
1410          27          28
1420          28          27
1430          30          28
1440          28          32
1450          30          25
1460          25          31
1470          25          33
1480          32          25
1490          26          25
1500          31          20
1510          25          34
1520          29          31
1530          29          25
1540          27          28
1550          32          29
1560          27          34
1570          29          25
1580          33          28
1590          25          31
1600          29          30
1610          30          24
1620          31          29
1630          31          26
1640          27          33
1650          31          31
1660          30          26
1670          26          33
1680          29          28
1690          31          27
1700          25          33
1710          27          27
1720          27          29
1730          26          27
1740          28          32
1750          26          31
1760          28          29
1770          26          31
1780          28          27
1790          30          34
1800          28          36
1810          27          35
1820          29          28
1830          32          26
1840          29          33
1850          24          34
1860          26          29
1870          28          32
1880          24          40
1890          30          22
1900          29          29
1910          26          26
1920          26          32
1930          25          27
1940          31          24
1950          30          31
1960          23          36
1970          26          31
1980          31          28
1990          26          26
2000          25          33
2010          26          27
2020          33          27
2030          27          30
2040          27          28
2050          30          30
2060          28          29
2070          24          34
2080          33          27
2090          26          36
2100          30          34
2110          26          32
2120          22          40
2130          28          34
2140          29          33
2150          31          30
2160          25          37
2170          26          37
2180          28          32
2190          31          30
2200          28          34
2210          32          27
2220          27          29
2230          32          29
2240          27          31
2250          29          26
2260          25          34
2270          29          37
2280          30          33
2290          31          23
2300          29          36
2310          28          34
2320          26          37
2330          29          34
2340          24          38
2350          27          34
2360          29          31
2370          28          27
2380          28          32
2390          25          33
2400          29          23
2410          24          37
2420          30          32
2430          31          29
2440          30          31
2450          25          35
2460          28          29
2470          31          27
2480          28          31
2490          23          34
2500          26          34
2510          32          22
2520          31          24
2530          32          25
2540          25          27
2550          26          26
2560          28          31
2570          27          27
2580          27          29
2590          27          32
2600          36          25
2610          30          28
2620          26          30
2630          27          31
2640          31          30
2650          33          21
2660          24          33
2670          28          25
2680          29          20
2690          27          29
2700          29          30
2710          29          28
2720          24          33
2730          28          30
2740          24          34
2750          26          34
2760          29          27
2770          26          31
2780          20          39
2790          27          33
2800          27          28
2810          33          29
2820          28          34
2830          30          23
2840          22          30
2850          27          27
2860          28          30
2870          30          22
2880          28          29
2890          24          34
2900          24          33
2910          28          26
2920          31          30
2930          29          29
2940          24          31
2950          27          33
2960          24          31
2970          29          31
2980          27          31
2990          29          32
3000          33          35
3010          25          37
3020          28          30
3030          24          35
3040          27          28
3050          26          30
3060          30          24
3070          25          26
3080          26          31
3090          29          28
3100          26          29
3110          28          30
3120          27          26
3130          27          26
3140          28          28
3150          27          31
3160          29          28
3170          28          32
3180          21          33
3190          26          30
3200          27          32
3210          29          30
3220          25          31
3230          31          26
3240          28          24
3250          26          28
3260          27          28
3270          26          29
3280          29          23
3290          26          31
3300          27          29
3310          22          34
3320          25          29
3330          30          25
3340          24          35
3350          26          27
3360          26          29
3370          31          24
3380          25          28
3390          24          31
3400          27          24
3410          28          26
3420          26          29
3430          26          26
3440          26          25
3450          25          30
3460          25          26
3470          25          29
3480          27          29
3490          24          34
3500          24          33
3510          31          22
3520          28          32
3530          26          28
3540          28          28
3550          26          31
3560          23          31
3570          27          31
3580          24          31
3590          22          33
3600          25          31
3610          28          31
3620          30          28
3630          26          28
3640          24          29
3650          26          25
3660          25          26
3670          26          19
3680          29          23
3690          28          25
3700          25          29
3710          25          29
3720          26          25
3730          32          26
3740          25          32
3750          30          20
3760          30          26
3770          28          24
3780          29          27
3790          28          23
3800          24          29
3810          29          25
3820          21          36
3830          29          30
3840          25          35
3850          24          31
3860          28          21
3870          29          29
3880          25          34
3890          25          34
3900          28          32
3910          20          26
3920          24          32
3930          29          27
3940          24          34
3950          29          29
3960          26          34
3970          32          32
3980          33          25
3990          26          29
4000          27          31
4010          24          33
4020          30          30
4030          29          29
4040          30          33
4050          29          32
4060          26          37
4070          26          35
4080          29          28
4090          29          31
4100          26          27
4110          25          30
4120          32          22
4130          28          30
4140          25          32
4150          30          29
4160          25          35
4170          30          22
4180          27          33
4190          27          36
4200          27          29
4210          27          29
4220          27          33
4230          26          32
4240          24          34
4250          29          31
4260          24          34
4270          28          25
4280          28          31
4290          26          30
4300          26          26
4310          30          25
4320          22          34
4330          28          29
4340          21          35
4350          28          29
4360          27          25
4370          24          33
4380          30          24
4390          26          26
4400          31          29
4410          28          27
4420          30          23
4430          28          28
4440          26          31
4450          23          36
4460          30          29
4470          26          32
4480          23          29
4490          29          27
4500          26          24
4510          27          28
4520          24          32
4530          26          33
4540          30          32
4550          28          29
4560          24          32
4570          25          37
4580          27          30
4590          27          28
4600          25          24
4610          23          38
4620          29          26
4630          27          29
4640          27          29
4650          26          31
4660          26          26
4670          28          32
4680          22          35
4690          30          25
4700          25          35
4710          29          27
4720          26          27
4730          23          30
4740          27          31
4750          24          28
4760          27          26
4770          26          27
4780          24          29
4790          28          34
4800          28          27
4810          25          28
4820          25          31
4830          27          30
4840          30          31
4850          23          33
4860          29          26
4870          27          34
4880          31          22
4890          27          33
4900          32          25
4910          28          31
4920          29          36
4930          28          29
4940          32          27
4950          27          33
4960          29          32
4970          27          32
4980          32          28
4990          30          25
5000          30          32
5010          28          29
5020          27          33
5030          24          37
5040          28          36
5050          26          30
5060          31          28
5070          28          34
5080          26          39
5090          30          33
5100          28          33
5110          28          37
5120          29          35
5130          30          32
5140          31          29
5150          24          40
5160          29          32
5170          25          36
5180          30          35
5190          29          32
5200          30          29
5210          31          27
5220          30          33
5230          33          27
5240          28          32
5250          28          36
5260          29          36
5270          27          39
5280          27          41
5290          27          23
5300          23          33
5310          24          31
5320          26          29
5330          31          32
5340          30          34
5350          29          30
5360          31          31
5370          33          34
5380          31          35
5390          29          36
5400          29          33
5410          27          27
5420          32          27
5430          26          30
5440          28          37
5450          31          31
5460          33          29
5470          26          32
5480          29          28
5490          30          31
5500          28          32
5510          28          27
5520          26          34
5530          31          28
5540          31          30
5550          31          33
5560          28          36
5570          30          32
5580          28          31
5590          30          27
5600          25          38
5610          28          34
5620          24          35
5630          31          28
5640          23          35
5650          26          29
5660          28          33
5670          30          27
5680          27          28
5690          25          32
5700          28          25
5710          27          27
5720          25          34
5730          25          40
5740          23          36
5750          26          38
5760          28          32
5770          27          35
5780          27          33
5790          28          34
5800          32          22
5810          29          28
5820          27          37
5830          29          29
5840          27          32
5850          28          31
5860          31          32
5870          29          33
5880          22          36
5890          27          34
5900          29          32
5910          30          33
5920          27          33
5930          25          38
5940          26          34
5950          27          32
5960          30          31
5970          29          37
5980          29          30
5990          30          32
6000          29          33
6010          30          32
6020          30          35
6030          29          35
6040          28          30
6050          29          33
6060          28          36
6070          25          33
6080          26          35
6090          28          35
6100          30          29
6110          27          34
6120          28          32
6130          27          30
6140          32          32
6150          27          38
6160          30          29
6170          29          32
6180          26          32
6190          29          33
6200          31          31
6210          29          29
6220          32          27
6230          25          36
6240          29          32
6250          29          29
6260          28          29
6270          28          29
6280          26          32
6290          27          39
6300          32          29
6310          28          31
6320          28          31
6330          26          34
6340          27          34
6350          29          27
6360          26          36
6370          25          28
6380          26          31
6390          23          37
6400          27          30
6410          30          23
6420          26          28
6430          30          32
6440          26          34
6450          28          32
6460          29          33
6470          27          36
6480          27          44
6490          26          34
6500          26          28
6510          28          33
6520          30          31
6530          27          31
6540          30          26
6550          30          34
6560          28          30
6570          25          25
6580          27          36
6590          31          32
6600          27          29
6610          27          34
6620          30          26
6630          26          34
6640          24          35
6650          25          28
6660          24          35
6670          26          35
6680          28          30
6690          28          28
6700          31          24
6710          26          34
6720          27          32
6730          28          30
6740          29          25
6750          26          34
6760          28          33
6770          28          31
6780          25          34
6790          28          25
6800          28          30
6810          27          29
6820          27          32
6830          25          34
6840          30          24
6850          29          30
6860          30          26
6870          27          30
6880          28          37
6890          27          35
6900          26          39
6910          28          27
6920          32          30
6930          30          33
6940          31          31
6950          27          38
6960          27          32
6970          25          29
6980          27          31
6990          27          32
7000          26          36
7010          27          33
7020          26          30
7030          24          40
7040          25          37
7050          26          33
7060          24          32
7070          26          29
7080          22          39
7090          27          35
7100          31          28
7110          25          34
7120          26          35
7130          27          40
7140          26          35
7150          25          36
7160          28          39
7170          26          34
7180          27          32
7190          28          35
7200          23          35
7210          27          32
7220          26          36
7230          27          33
7240          30          31
7250          27          32
7260          27          33
7270          30          31
7280          27          32
7290          26          33
7300          28          34
7310          27          33
7320          30          28
7330          27          29
7340          26          30
7350          24          29
7360          28          31
7370          29          35
7380          27          32
7390          25          29
7400          29          33
7410          20          42
7420          27          36
7430          25          34
7440          26          36
7450          26          28
7460          29          35
7470          27          23
7480          30          31
7490          20          40
7500          27          28
7510          27          31
7520          28          35
7530          30          33
7540          28          30
7550          25          32
7560          29          32
7570          27          29
7580          29          25
7590          30          26
7600          27          33
7610          28          33
7620          25          33
7630          25          37
7640          28          27
7650          25          32
7660          29          30
7670          26          30
7680          27          34
7690          27          32
7700          27          31
7710          29          26
7720          24          31
7730          28          26
7740          27          30
7750          26          31
7760          25          32
7770          24          33
7780          27          24
7790          25          31
7800          29          29
7810          27          25
7820          28          31
7830          29          31
7840          29          31
7850          27          29
7860          29          25
7870          30          26
7880          26          33
7890          25          36
7900          30          23
7910          29          29
7920          28          31
7930          30          28
7940          29          31
7950          28          29
7960          27          34
7970          28          28
7980          25          32
7990          26          31
8000          28          35
8010          29          35
8020          28          35
8030          27          30
8040          28          30
8050          24          36
8060          28          34
8070          27          31
8080          29          30
8090          29          33
8100          29          35
8110          26          30
8120          29          32
8130          27          30
8140          29          32
8150          23          33
8160          27          29
8170          29          34
8180          28          34
8190          25          36
8200          29          32
8210          28          34
8220          27          28
8230          27          32
8240          29          31
8250          25          30
8260          31          33
8270          27          31
8280          26          26
8290          27          33
8300          28          34
8310          31          22
8320          28          36
8330          26          33
8340          27          36
8350          30          26
8360          25          29
8370          27          32
8380          25          29
8390          25          36
8400          25          32
8410          28          29
8420          26          33
8430          22          30
8440          28          30
8450          26          33
8460          24          36
8470          28          32
8480          31          34
8490          26          33
8500          31          30
8510          27          37
8520          30          32
8530          25          34
8540          25          38
8550          31          27
8560          28          31
8570          27          32
8580          23          38
8590          27          42
8600          24          31
8610          26          26
8620          25          28
8630          31          27
8640          31          28
8650          27          26
8660          29          26
8670          28          27
8680          23          28
8690          25          31
8700          28          27
8710          27          26
8720          29          22
8730          29          26
8740          30          26
8750          26          24
8760          30          25
8770          28          26
8780          28          29
8790          27          28
8800          28          29
8810          27          24
8820          27          28
8830          21          35
8840          27          29
8850          26          32
8860          27          32
8870          27          22
8880          31          28
8890          29          26
8900          34          17
8910          28          29
8920          23          27
8930          24          26
8940          28          23
8950          26          27
8960          30          23
8970          28          31
8980          32          23
8990          29          27
9000          32          20
9010          32          29
9020          26          33
9030          34          22
9040          28          26
9050          27          27
9060          26          35
9070          32          23
9080          25          29
9090          25          30
9100          28          29
9110          24          30
9120          27          26
9130          26          29
9140          29          25
9150          28          26
9160          27          28
9170          30          23
9180          31          26
9190          28          35
9200          27          31
9210          31          29
9220          31          26
9230          29          24
9240          25          33
9250          24          28
9260          22          34
9270          28          29
9280          30          25
9290          24          31
9300          26          28
9310          30          27
9320          27          30
9330          25          33
9340          26          30
9350          26          37
9360          23          30
9370          27          27
9380          26          27
9390          30          27
9400          25          31
9410          27          26
9420          23          33
9430          30          22
9440          27          24
9450          28          30
9460          24          28
9470          26          25
9480          27          27
9490          25          25
9500          22          31
9510          29          31
9520          25          38
9530          27          26
9540          28          30
9550          29          28
9560          28          25
9570          29          24
9580          26          31
9590          29          26
9600          28          26
9610          25          27
9620          24          28
9630          24          29
9640          25          29
9650          30          25
9660          31          27
9670          26          33
9680          25          26
9690          25          30
9700          26          31
9710          25          32
9720          32          30
9730          28          30
9740          30          23
9750          26          27
9760          31          26
9770          28          27
9780          31          30
9790          28          28
9800          27          30
9810          25          35
9820          26          29
9830          29          24
9840          24          32
9850          26          28
9860          27          30
9870          26          27
9880          22          34
9890          31          25
9900          29          22
9910          21          32
9920          23          38
9930          24          32
9940          31          25
9950          29          27
9960          28          25
9970          27          24
9980          26          28
9990          29          26
10000          29          21
