Time   C(t)   
ps   
0           1           1  2.02507e-10   0.0231366
10    0.771647    0.808866   -0.165175   0.0129722
20    0.740556    0.782842    0.532166  0.00280786
30     0.71549    0.761862   0.0131371  0.00223095
40    0.695937    0.745496    0.282276  0.00182255
50    0.679039    0.731352  -0.0557144  0.00164795
60    0.662978    0.717909    0.708874  0.00153888
70    0.648261    0.705591    0.753375  0.00137782
80    0.635421    0.694844    -1.56608  0.00129997
90    0.622262    0.683829   -0.868344  0.00120171
100    0.611387    0.674727    -1.11766  0.00114579
110    0.599346    0.664648    0.886658  0.00111484
120     0.58909    0.656064    0.772822  0.00100938
130    0.579159    0.647751   -0.285915  0.00106608
140    0.567769    0.638218   -0.556066  0.00100949
150    0.558969    0.630852    0.253683  0.000808784
160    0.551593    0.624678   -0.940295  0.000821227
170    0.542544    0.617104    -1.68372  0.00083884
180    0.534816    0.610636   -0.063256  0.000837922
190    0.525786    0.603077   -0.648872  0.000748417
200    0.519848    0.598107    -1.10019  0.000736699
210    0.511052    0.590745   -0.357427  0.000865719
220    0.502534    0.583615   -0.109758  0.000739707
230    0.496258    0.578362  -0.0654324  0.000721171
240     0.48811    0.571542    0.496339  0.000703749
250    0.482183    0.566581   -0.674937  0.000698493
260     0.47414    0.559849    -1.05826  0.000752479
270    0.467133    0.553984    -0.47256  0.000652774
280    0.461085    0.548922   -0.968207  0.000579745
290    0.455538    0.544279   -0.923508  0.00062428
300    0.448599    0.538471    -1.80213  0.000643152
310    0.442675    0.533513    -0.74458  0.000496635
320    0.438667    0.530158    -0.49768  0.000496386
330    0.432748    0.525203   -0.543127  0.000603384
340    0.426599    0.520057      -2.187  0.00048618
350    0.423024    0.517065   -0.274559  0.000454627
360    0.417506    0.512446    0.355404  0.000556442
370    0.411895     0.50775   -0.365144  0.000571197
380    0.406082    0.502884   -0.860681  0.00043845
390    0.403126     0.50041    -1.89775  0.000443651
400    0.397209    0.495457    -1.55972  0.000512883
410    0.392868    0.491824   -0.276714  0.000452325
420    0.388163    0.487885    -1.17766  0.000454617
430    0.383776    0.484214    -2.66522  0.000400658
440     0.38015    0.481178    -1.56257  0.000479886
450    0.374178     0.47618     -2.1476  0.000545502
460     0.36924    0.472046    -2.61988  0.000443384
470    0.365311    0.468758    -2.14731  0.000356039
480    0.362119    0.466086    -1.49546  0.000279455
490    0.359722     0.46408    -2.46443  0.000331226
500    0.355494    0.460541    -2.28504  0.000425981
510    0.351202    0.456949    -1.96922  0.000335458
520    0.348785    0.454926    -3.14091  0.000332065
530    0.344561     0.45139    -2.98291  0.000336853
540    0.342048    0.449287    -2.57861  0.000371003
550    0.337141    0.445179    -2.89359  0.000381385
560     0.33442    0.442902    -1.79055  0.000305727
570    0.331026    0.440061    -2.19643  0.00039417
580    0.326537    0.436304    -2.35351  0.000332156
590    0.324383    0.434501    -1.99454  0.000296643
600    0.320604    0.431338    -2.42177  0.000347561
610    0.317432    0.428683    -1.07132  0.000258723
620     0.31543    0.427007    -2.13041  0.000301375
630    0.311404    0.423638   -0.351392  0.000328569
640    0.308858    0.421507   -0.757267  0.000222604
650    0.306952    0.419911    -0.93758  0.000249846
660    0.303861    0.417324   -0.802559  0.000222111
670     0.30251    0.416193    -1.38842  0.000241029
680    0.299041    0.413289   -0.870465  0.000357129
690    0.295367    0.410215   -0.375105  0.000311241
700    0.292816    0.408079  -0.0604526   0.0002894
710    0.289579     0.40537    -0.35348  0.000258856
720    0.287639    0.403746   0.0288577  0.000226864
730    0.285042    0.401572    -1.21013  0.000328042
740    0.281078    0.398254    0.253782  0.000321549
750    0.278611    0.396189    -0.57957  0.000298169
760    0.275115    0.393263   -0.106163  0.000226235
770    0.274086    0.392402   0.0955765  0.000226828
780    0.270578    0.389466   -0.894859  0.00021147
790    0.269857    0.388862    -1.30153  0.000186394
800     0.26685    0.386345  -0.0634424  0.000243862
810     0.26498     0.38478  -0.0189199  0.000255919
820    0.261732    0.382061    0.566785  0.000227736
830    0.260425    0.380967    0.746108  0.000219728
840    0.257337    0.378383    0.115947  0.000254545
850    0.255334    0.376706    0.137593  0.000191945
860    0.253498     0.37517   -0.155391  0.000176595
870    0.251802     0.37375   -0.560848  0.000211501
880    0.249268    0.371629   -0.808628  0.000273909
890    0.246324    0.369165   -0.178158  0.000314935
900     0.24297    0.366357   -0.335858  0.000254894
910    0.241226    0.364898   -0.877303  0.000236764
920    0.238234    0.362394   -0.516875  0.000258946
930    0.236047    0.360563   -0.404841  0.000242145
940    0.233392     0.35834   -0.652005  0.000220881
950     0.23163    0.356865   -0.336847  0.000192351
960    0.229545     0.35512   -0.405171  0.000172418
970    0.228181    0.353979    -1.12574  0.000171363
980    0.226117    0.352251    -1.39596  0.000231469
990    0.223552    0.350104    -1.80142  0.000237842
1000     0.22136     0.34827    -1.14917  0.000214998
1010    0.219252    0.346505   0.0664766  0.000246172
1020    0.216437    0.344149    -1.57667  0.000154437
1030    0.216163     0.34392    -1.23945  8.45864e-05
1040    0.214745    0.342733    -1.12726  0.000152211
1050    0.213119    0.341372    -1.60036  0.000143702
1060    0.211871    0.340327    -1.64649  0.000235252
1070    0.208414    0.337434    -1.53265  0.000200319
1080    0.207865    0.336974   -0.925696  0.00013753
1090    0.205663    0.335131     -1.0608  0.000146617
1100    0.204932    0.334519    -1.93925  0.000169178
1110     0.20228    0.332299    -1.82687  0.00022269
1120    0.200479    0.330792     -2.1876  0.000220315
1130    0.197874    0.328611    -1.35396  0.000247449
1140     0.19553    0.326649    -2.77227  0.000212379
1150    0.193626    0.325056    -2.36758  0.000223278
1160    0.191064    0.322912    -2.47999  0.000223749
1170    0.189151     0.32131    -1.69173  0.000114104
1180    0.188782    0.321001    -2.12053  0.000123404
1190    0.186683    0.319244    -2.18784  0.00022358
1200     0.18431    0.317259     -1.8055  0.000204633
1210     0.18259    0.315819   -0.927411  0.000203657
1220    0.180237    0.313849    -1.67013  0.000117226
1230    0.180246    0.313856    -2.23358  0.000101138
1240    0.178215    0.312156    -2.03054  0.00026638
1250    0.174918    0.309397    -1.67013  0.000199267
1260    0.174229     0.30882    -1.10757  6.59704e-05
1270    0.173599    0.308293     -1.7163  0.000135425
1280    0.171521    0.306553    -1.89662  0.000194444
1290     0.16971    0.305038   -0.995822  0.000190385
1300    0.167713    0.303366    -1.49044  0.00017722
1310    0.166165    0.302071   -0.951058  0.000145882
1320    0.164795    0.300924   -0.770525  0.000105332
1330    0.164059    0.300308    -0.77059  4.64335e-05
1340    0.163867    0.300147     -1.3112  7.23951e-05
1350    0.162611    0.299096   -0.838519  0.000136349
1360     0.16114    0.297864    -1.04122  0.000110783
1370    0.160395    0.297241    -1.24435  0.000103475
1380     0.15907    0.296132   -0.726661  9.45173e-05
1390    0.158505    0.295659    -2.14493  0.000116169
1400    0.156747    0.294188   -0.366716  0.000127071
1410    0.155963    0.293532   -0.412427  0.000132017
1420    0.154107    0.291978   -0.659744  0.000124591
1430    0.153472    0.291446   -0.795468  0.000144888
1440    0.151209    0.289552    -1.20042  0.000182021
1450    0.149831    0.288399   -0.615287  0.000128675
1460    0.148635    0.287398   -0.908403   4.583e-05
1470    0.148915    0.287632   -0.232972  7.68639e-05
1480    0.147098    0.286111     1.11796  0.000146371
1490    0.145987    0.285182    0.869784  0.000126658
1500    0.144565    0.283991     1.25269  0.000114572
1510    0.143696    0.283264      1.0501  0.000104036
1520    0.142484    0.282249     1.00498  0.000104243
1530    0.141611    0.281519     1.86011  9.98631e-05
1540    0.140487    0.280578     1.22944  8.60997e-05
1550    0.139889    0.280077     1.31897  0.000164139
1560    0.137204     0.27783     1.74709  0.000186221
1570    0.136165     0.27696     1.49922  9.62913e-05
1580    0.135278    0.276218       1.094  0.000110586
1590    0.133953    0.275109     1.47658  8.11048e-05
1600    0.133656     0.27486     1.88132  9.07481e-05
1610    0.132138    0.273589     1.65593  0.00012382
1620     0.13118    0.272788     1.06998  0.000122584
1630    0.129686    0.271537     1.65584  0.000140106
1640    0.128378    0.270442     1.04755  0.00017506
1650    0.126185    0.268607     1.79062  0.000170713
1660    0.124963    0.267584     1.45272  0.000106536
1670    0.124054    0.266823     1.11466  8.47165e-05
1680    0.123269    0.266166     1.31717  7.70096e-05
1690    0.122514    0.265534     1.74495  9.3025e-05
1700    0.121409    0.264609     1.54132  0.000124921
1710    0.120016    0.263443    0.888373  0.000141064
1720    0.118587    0.262248    0.956038  0.000174757
1730     0.11652    0.260518      1.3164  0.00013698
1740    0.115848    0.259954     1.33831  0.000121481
1750    0.114091    0.258484     1.15824  0.000150391
1760     0.11284    0.257437     1.65349  0.000144399
1770    0.111203    0.256067     1.31567  9.67957e-05
1780    0.110904    0.255816    0.481927  6.1927e-05
1790    0.109964     0.25503       2.058  9.40613e-05
1800    0.109023    0.254242     1.69777  8.62781e-05
1810    0.108239    0.253586     1.29209  0.000157149
1820     0.10588    0.251611     1.20208  0.00011564
1830    0.105926     0.25165     1.22379  6.13611e-05
1840    0.104653    0.250584      1.5166  0.000132314
1850     0.10328    0.249435     1.35886  0.000142309
1860    0.101806    0.248202     1.96717  0.00011359
1870    0.101008    0.247533     1.83149  7.51011e-05
1880    0.100304    0.246944     2.28156  0.000102811
1890   0.0989517    0.245812     2.73178  0.000140312
1900   0.0974981    0.244596     2.48455  8.70913e-05
1910   0.0972098    0.244354     2.05637  8.08679e-05
1920   0.0958807    0.243242     1.92089  0.000124944
1930    0.094711    0.242263     1.02025  0.000128522
1940   0.0933103     0.24109     1.38024  0.000132096
1950    0.092069    0.240051     1.29036  7.19987e-05
1960   0.0918703    0.239885    0.186788  0.000126211
1970   0.0895448    0.237939    0.547656  0.000144408
1980   0.0889821    0.237468    0.479508  6.12531e-05
1990   0.0883197    0.236913    -0.01605  2.69223e-05
2000   0.0884437    0.237017  -0.0610568  0.000148688
2010    0.085346    0.234424    0.682303  0.000186716
2020   0.0847094    0.233891     0.32183  3.73621e-05
2030   0.0845987    0.233799    0.636504  7.87385e-05
2040   0.0831346    0.232573   0.0512182  0.000123462
2050   0.0821295    0.231732    0.208786  0.000135383
2060   0.0804269    0.230307   0.0964006  0.000124088
2070   0.0796477    0.229655    0.523591  2.82697e-05
2080   0.0798615    0.229834   -0.039565  8.98492e-05
2090   0.0778507    0.228151     0.27568  0.000174728
2100    0.076367    0.226909    0.320379  0.000118595
2110   0.0754788    0.226165   -0.355163  7.39388e-05
2120   0.0748882    0.225671   -0.422651  8.41647e-05
2130   0.0737955    0.224756   -0.175311  0.000156192
2140   0.0717644    0.223056    -0.51317  0.000136451
2150   0.0710665    0.222472   -0.918012  7.15416e-05
2160   0.0703335    0.221859   -0.513016  7.50851e-05
2170   0.0695648    0.221215    -1.09863  9.71135e-05
2180   0.0683913    0.220233   -0.355316  5.02538e-05
2190   0.0685598    0.220374    0.792314  4.37245e-05
2200   0.0675168    0.219501    0.229244  0.000129741
2210   0.0659649    0.218202  -0.0857375  0.000197575
2220   0.0635653    0.216193   -0.468163  0.000140549
2230    0.063154    0.215849   -0.873687  5.30347e-05
2240   0.0625046    0.215306   -0.108416  4.63827e-05
2250   0.0622263    0.215073   -0.198782  4.99217e-05
2260   0.0615062     0.21447   -0.378766  0.000102685
2270   0.0601726    0.213354   -0.738974  6.54751e-05
2280   0.0601967    0.213374  -0.0188209  0.000116849
2290   0.0578356    0.211398   -0.311124  0.000145997
2300   0.0572767     0.21093    0.183754  6.10905e-05
2310   0.0566138    0.210375  -0.0641796  9.03165e-05
2320   0.0554704    0.209418   0.0259005  0.000126486
2330   0.0540841    0.208258    0.408964  5.99233e-05
2340   0.0542719    0.208415   -0.423816  1.55544e-05
2350    0.053773    0.207997   0.0932349  6.71238e-05
2360   0.0529294    0.207291  -0.0194366  9.6526e-05
2370   0.0518425    0.206381    0.161096  5.54077e-05
2380   0.0518213    0.206364    0.453245  8.66845e-05
2390   0.0501088     0.20493    0.386218  0.000142099
2400   0.0489793    0.203985     0.70109  0.000125218
2410   0.0476044    0.202834    0.543632  0.000122067
2420    0.046538    0.201941    0.971351  6.34119e-05
2430   0.0463362    0.201773    0.453201  5.66913e-05
2440   0.0454041    0.200992    0.295787  0.000110719
2450   0.0441218    0.199919     0.56574  0.00013189
2460   0.0427663    0.198785    0.273064  0.000102588
2470   0.0420701    0.198202    0.205246  8.54321e-05
2480   0.0410577    0.197354   -0.312134  8.73931e-05
2490   0.0403222    0.196739    0.137823  7.36413e-05
2500   0.0395849    0.196122   -0.402566  0.000114156
2510   0.0380391    0.194828   -0.830175  0.000116172
2520   0.0372614    0.194177  -0.0198321  0.000107741
2530   0.0358842    0.193024   -0.560112  0.000104464
2540   0.0351722    0.192428   -0.740249  6.07235e-05
2550   0.0346698    0.192008   -0.605097  2.2056e-05
2560    0.034731    0.192059   -0.718251  1.33138e-05
2570   0.0344035    0.191785   -0.515677  3.81175e-05
2580   0.0339687    0.191421     -0.6058  5.59347e-05
2590   0.0332848    0.190848    -1.19104  7.02536e-05
2600   0.0325636    0.190245   -0.470846   0.0001131
2610   0.0310228    0.188955    -0.44788  0.000147174
2620   0.0296201    0.187781    -1.70869  6.7381e-05
2630   0.0296752    0.187827   -0.786179  5.20637e-06
2640    0.029516    0.187694   -0.313233  2.84445e-05
2650   0.0291063    0.187351   -0.786136  -3.23335e-05
2660   0.0301627    0.188235   -0.561079  7.09621e-06
2670   0.0289644    0.187232    -1.14683  8.74829e-06
2680   0.0299877    0.188089   -0.629491  -2.52159e-05
2690   0.0294687    0.187654   -0.787212  6.99705e-05
2700   0.0285883    0.186917    -1.01225  0.000115182
2710    0.027165    0.185726    -1.05677  3.78827e-05
2720   0.0278306    0.186283    -1.52976  -1.60697e-05
2730   0.0274864    0.185995    -1.12474  2.90417e-05
2740   0.0272498    0.185797    -1.41726  7.39079e-06
2750   0.0273386    0.185871    -0.76438  2.19482e-05
2760   0.0268108     0.18543   -0.674212  8.01012e-05
2770   0.0257366     0.18453     -1.5295  3.48054e-05
2780   0.0261147    0.184847    -1.21436  -7.79354e-05
2790   0.0272953    0.185835    -1.32734  -3.30508e-06
2800   0.0261808    0.184902    -1.64276  7.50629e-05
2810    0.025794    0.184579    -1.14766  6.43527e-05
2820   0.0248938    0.183825    -1.35008  6.44996e-05
2830    0.024504    0.183499    -1.35008  5.92086e-05
2840   0.0237096    0.182834   -0.607119  -1.26576e-06
2850   0.0245294     0.18352     -0.8102  2.64336e-05
2860   0.0231809    0.182391   -0.990227  9.26654e-05
2870   0.0226761    0.181969   -0.742733   7.823e-05
2880   0.0216163    0.181082   -0.764753  6.36318e-05
2890   0.0214034    0.180904   -0.855207  -1.3822e-05
2900   0.0218928    0.181313    -0.65294  4.73216e-05
2910    0.020457    0.180111   -0.832615  0.000117813
2920   0.0195365    0.179341    -1.28281  1.22929e-05
2930   0.0202111    0.179906   -0.742799  -1.17428e-05
2940   0.0197714    0.179538   -0.720208  4.58912e-05
2950   0.0192933    0.179137   -0.134943  6.0939e-05
2960   0.0185526    0.178517   -0.450167  7.23178e-05
2970    0.017847    0.177927  -0.0901126  7.43998e-05
2980   0.0170646    0.177272   -0.112594  5.27045e-06
2990   0.0177415    0.177839   -0.135713  6.16779e-05
3000    0.015831    0.176239   -0.247834  0.000104892
3010   0.0156437    0.176083   -0.157732  1.12264e-05
3020   0.0156065    0.176051   -0.450387  5.62123e-06
3030   0.0155313    0.175988   -0.360308  4.90486e-05
3040   0.0146255     0.17523     -0.1805  3.21118e-05
3050    0.014889    0.175451    -0.27025  3.89526e-06
3060   0.0145476    0.175165   -0.337936  2.09254e-05
3070   0.0144705    0.175101   -0.337914  -1.8863e-05
3080   0.0149249    0.175481   -0.338266  4.19461e-05
3090   0.0136316    0.174398   -0.585803  7.81233e-05
3100   0.0133624    0.174173   -0.518249  -2.26158e-05
3110   0.0140839    0.174777    0.111605  -2.26096e-05
3120   0.0138146    0.174552   -0.203157  -5.54291e-06
3130   0.0141948     0.17487    -1.01418  2.32113e-05
3140   0.0133504    0.174163   -0.518798  1.93579e-05
3150   0.0138076    0.174546  -0.0238338  -6.30665e-05
3160   0.0146117    0.175219   -0.609406  -1.13003e-05
3170   0.0140336    0.174735   -0.564421  9.25587e-05
3180   0.0127606    0.173669   0.0662233  5.03392e-05
3190   0.0130269    0.173892   0.0437864  5.06098e-05
3200   0.0117484    0.172822  -0.0234599  9.12724e-05
3210   0.0112014    0.172364   -0.924454  2.57215e-05
3220   0.0112339    0.172392   -0.676895  2.97253e-05
3230   0.0106069    0.171867    -1.08224  6.66813e-05
3240  0.00990031    0.171275    -1.01451  5.12979e-05
3250  0.00958094    0.171008   -0.474276  3.19934e-05
3260  0.00926044     0.17074    -0.31684  7.11285e-05
3270  0.00815837    0.169817    -1.17203  4.58663e-05
3280  0.00834311    0.169972    -0.29416  -5.17706e-05
3290  0.00919379    0.170684    -1.24027  -6.78198e-06
3300  0.00847875    0.170085    -1.10532  6.37546e-05
3310  0.00791869    0.169617   -0.970186  1.08695e-05
3320  0.00826136    0.169903    -1.21803  7.00452e-05
3330  0.00651779    0.168444    -1.62294  0.000121367
3340  0.00583402    0.167872    -1.62298  -1.644e-05
3350  0.00684659    0.168719    -1.55591  -7.76737e-05
3360  0.00738749    0.169172    -1.57875  9.22454e-06
3370   0.0066621    0.168565    -1.44333  5.67652e-05
3380  0.00625219    0.168222     -1.8485  4.70172e-05
3390  0.00572175    0.167778    -1.35314  5.36398e-06
3400  0.00614491    0.168132      -1.939  -6.49535e-06
3410  0.00585166    0.167887    -1.21825   9.399e-06
3420  0.00595693    0.167975     -1.1734  -5.42984e-07
3430  0.00586252    0.167896    -1.08332  -1.45778e-05
3440  0.00624849    0.168219    -1.10604  -3.4639e-05
3450   0.0065553    0.168475    -1.57879  -2.87204e-05
3460  0.00682289    0.168699    -1.80413  1.94558e-05
3470  0.00616618     0.16815    -1.73629  5.35063e-06
3480  0.00671588     0.16861    -1.96166  -2.27823e-05
3490  0.00662183    0.168531    -1.78141  3.36651e-05
3500  0.00604258    0.168046     -1.8269  2.56405e-05
3510  0.00610902    0.168102    -3.06507  -1.07129e-05
3520  0.00625684    0.168226    -1.75945  1.43845e-06
3530  0.00608025    0.168078    -2.50209  -5.95771e-05
3540  0.00744838    0.169223    -1.91726  -4.65987e-06
3550  0.00617345    0.168156    -2.32248  7.6699e-05
3560   0.0059144    0.167939    -2.90772  -6.12414e-07
3570   0.0061857    0.168166    -2.36753  1.78438e-05
3580  0.00555752     0.16764    -2.52505  0.000107996
3590  0.00402577    0.166358    -2.57008  8.56823e-05
3600  0.00384388    0.166206    -3.15543  -6.44282e-06
3610  0.00415463    0.166466    -2.50312  1.81678e-06
3620  0.00380754    0.166176    -2.90836  1.82666e-05
3630  0.00378929     0.16616    -2.68315  3.89971e-05
3640   0.0030276    0.165523     -2.8859  -1.26516e-05
3650  0.00404233    0.166372    -2.25539  -1.8766e-05
3660  0.00340292    0.165837     -2.4132  8.06468e-05
3670  0.00242939    0.165022    -2.34533  2.68449e-05
3680  0.00286602    0.165388    -2.61586  -1.25136e-05
3690  0.00267966    0.165232    -2.61601  2.49231e-05
3700  0.00236756     0.16497    -2.81846  6.2034e-06
3710  0.00255559    0.165128    -2.54833  -1.33528e-08
