Time   C(t)   
ps   
0           1           1  7.39421e-10   0.0731866
10    0.261912    0.843552     1.29734   0.0376734
20    0.246531    0.840292    -1.29829   0.0021603
30    0.218706    0.834394     0.77679  0.00166241
40    0.213283    0.833245    0.351155  0.000848445
50    0.201737    0.830797    -1.72374   0.0014507
60    0.184269    0.827095     1.34137  0.00191256
70    0.163486     0.82269    0.118625  0.000329134
80    0.177686      0.8257     1.57547  -0.000457362
90    0.172633    0.824628    0.679249  0.00082398
100    0.161207    0.822207    0.585481  0.000693572
110    0.158761    0.821688   0.0655725  0.000849231
120    0.144222    0.818606    -1.20668  0.000828408
130    0.142193    0.818176    0.348393  0.000852789
140    0.127166    0.814991    0.209538  0.000567228
150    0.130849    0.815772    0.207789  -0.00035769
160     0.13432    0.816508   -0.453369  6.07446e-06
170    0.130727    0.815746   -0.170779  0.000967815
180    0.114964    0.812405   -0.452541  0.000581766
190    0.119092     0.81328    0.205855  -0.000169495
200    0.118354    0.813123    -1.20797  0.000329035
210    0.112511    0.811885    0.253153  0.000373915
220    0.110875    0.811538  -0.0310949  4.14073e-05
230    0.111683    0.811709    -1.11549  0.000186254
240     0.10715    0.810749   -0.220102  0.00038685
250    0.103946    0.810069    -1.20977  0.00064401
260   0.0942701    0.808018   -0.171331  0.000142809
270     0.10109    0.809464    -2.52914  -0.000503901
280    0.104348    0.810155  -0.0789448  -1.84216e-06
290    0.101127    0.809472   -0.643712  0.000143315
300    0.101482    0.809547    0.581661  0.000412721
310   0.0928722    0.807722    -1.96175  -2.43943e-05
320     0.10197     0.80965   -0.785974  -0.000495128
330    0.102775    0.809821    0.390904  0.000312753
340   0.0957146    0.808325    0.345217  -3.59233e-05
350    0.103493    0.809973    0.814514  -3.5122e-05
360   0.0964171    0.808474      0.2036  8.81147e-05
370    0.101731      0.8096     1.42796  -0.00041909
380    0.104799     0.81025   -0.835067  0.000156194
390   0.0986071    0.808938    0.485776  6.55483e-05
400    0.103488    0.809972    0.955855  4.36004e-05
410   0.0977351    0.808753    -0.12721  0.000258537
420   0.0983171    0.808876    0.531693  0.000883468
430   0.0800657    0.805008   -0.313961  -0.000115209
440    0.100621    0.809365   -0.317368  -0.000215767
450    0.084381    0.805922     1.33456  0.000362358
460   0.0933742    0.807829   -0.647625  2.26367e-05
470   0.0839283    0.805826    0.768689  0.000318195
480   0.0870103     0.80648    0.201528  4.55126e-05
490    0.083018    0.805633  -0.0807404  0.000273933
500   0.0815316    0.805318  -0.0342253  -0.000377613
510   0.0905703    0.807234   -0.932149  -0.000492414
520   0.0913799    0.807406   -0.648914  0.000790362
530   0.0747631    0.803884    0.437143  0.000561519
540   0.0801495    0.805025     1.33125  -0.0001371
550   0.0775051    0.804465   0.0589898  0.000241778
560   0.0753139       0.804   -0.790439  -3.39411e-05
570   0.0781839    0.804609   0.0580234  8.14784e-05
580   0.0736844    0.803655   0.0583915  0.000392756
590   0.0703288    0.802944   -0.458985  -0.000137691
600   0.0764382    0.804239   -0.743739  -5.64516e-05
610   0.0714578    0.803183   0.0590821  -1.08685e-05
620   0.0766555    0.804285   -0.366645  -0.000334856
630   0.0781549    0.804603     1.61273  0.000592297
640   0.0648096    0.801774   -0.648269  0.000267564
650   0.0728036    0.803468   -0.366875  -0.000125993
660   0.0673295    0.802308   -0.508308  0.000291987
670   0.0669639    0.802231   -0.131582  0.00031624
680   0.0610047    0.800967   -0.837921  0.00056159
690   0.0557321     0.79985     1.04792  -0.000137789
700   0.0637604    0.801552    0.527643  -0.000114028
710   0.0580127    0.800333  -0.0365261  -0.00016179
720   0.0669962    0.802237     1.89362  0.000482909
730   0.0483545    0.798286      1.8967  0.000283157
740   0.0613331    0.801037     4.43965  -0.000512787
750   0.0586102     0.80046     1.70526  0.000331355
760    0.054706    0.799632    0.762981  0.000543747
770   0.0477353    0.798155    0.576183  -0.000432715
780   0.0633603    0.801467      1.5156  -0.000467795
790   0.0570912    0.800138     1.46923   0.0013122
800   0.0371162    0.795904    0.859326  0.000652685
810   0.0440375    0.797371    0.339371  -0.000278981
820   0.0426958    0.797087      1.2816  0.000193692
830   0.0401636     0.79655    0.623388  -0.000363005
840   0.0499559    0.798625     1.04534  -6.66309e-05
850   0.0414962    0.796832    0.905335  0.000656889
860   0.0368181    0.795841     1.04737  -1.91921e-05
870   0.0418801    0.796914     2.97866  -0.00089982
880   0.0548145    0.799655     1.65681  -9.09269e-05
890   0.0436986    0.797299    0.197017  7.46453e-05
900   0.0533216    0.799339   -0.134114  -5.54671e-05
910   0.0448079    0.797534     2.64781  0.000206571
920   0.0491902    0.798463     1.42133  -0.0003909
930   0.0526259    0.799191     1.09002  -3.22679e-05
940   0.0498356      0.7986     1.75094  9.92926e-05
950   0.0506401     0.79877    0.854722  -0.000224653
960   0.0543286    0.799552      2.8341  0.00011182
970   0.0484037    0.798296     2.22167  -6.90071e-05
980   0.0557088    0.799845     1.13635  7.60654e-05
990   0.0468824    0.797974    0.714808  0.000521729
1000   0.0452742    0.797633    0.290324  0.000293885
1010   0.0410047    0.796728     2.26998  -0.000600452
1020   0.0572832    0.800179     1.98403  0.000283059
1030   0.0353435    0.795528     1.42211  0.00109357
1040   0.0354118    0.795543     1.89321  -0.000492133
1050   0.0451862    0.797614    0.854447  -0.000529167
1060   0.0459952    0.797786    0.948398  -0.000287628
1070   0.0509387    0.798834    0.382204  0.000527592
1080   0.0354433    0.795549      1.0919  0.000174177
1090   0.0474552    0.798095   -0.842662  -0.000592452
1100   0.0472924    0.798061     1.32554  -0.000301449
1110   0.0534842    0.799373     1.51183  0.000187351
1120   0.0435453    0.797267     1.51413  -8.23501e-05
1130   0.0551312    0.799722      2.4553  -0.000167203
1140   0.0468894    0.797975    0.806873  0.000309885
1150   0.0489335    0.798409    0.854124  0.00010233
1160   0.0448428    0.797542     1.51459  -0.000229897
1170   0.0535314    0.799383    0.758562  -0.000401979
1180   0.0528824    0.799246     1.04051  -0.000107574
1190   0.0556829    0.799839    0.144656  0.00047228
1200   0.0434368    0.797244     1.51399  0.000509497
1210    0.045493    0.797679    0.570843  -0.00031707
1220   0.0497782    0.798588     2.73927  -0.000181474
1230   0.0491224    0.798449     1.60684  -5.82512e-05
1240   0.0509432    0.798835      1.5589  0.000152834
1250   0.0460658    0.797801     0.75847  4.0873e-05
1260   0.0501258    0.798661     0.47413  -0.000107785
1270   0.0482215    0.798258   -0.703761  0.000626407
1280   0.0375976    0.796006    0.381928  0.000265737
1290   0.0429067    0.797131     2.17133  -0.000419189
1300   0.0459814    0.797783     1.13441  -0.000132854
1310   0.0455638    0.797695     2.54714  0.000667308
1320   0.0326352    0.794954     1.84241  0.000730705
1330   0.0309497    0.794597     1.98458  -0.000132179
1340   0.0352788    0.795514     1.08753  -0.000157178
1350   0.0340933    0.795263     2.64316  -0.000321302
1360   0.0417049    0.796877     1.93461  -0.00013284
1370   0.0367501    0.795826     3.25407  0.000181094
1380    0.038083    0.796109      4.1024  0.000181882
1390   0.0331124    0.795055     3.44294  -0.000512407
1400   0.0483311    0.798281     3.58194  -0.000600972
1410   0.0451319    0.797603     3.96009  0.000333028
1420   0.0416706    0.796869     3.39403  0.000815263
1430   0.0288266    0.794147     1.55765  0.000461411
1440   0.0324423    0.794913      2.5003  -0.000234987
1450   0.0335264    0.795143     3.72507  0.000158486
1460   0.0292726    0.794241     4.71543  -0.000223345
1470   0.0379933     0.79609     2.68728  -0.00046525
1480   0.0385776    0.796214     4.33769  0.000222136
1490   0.0335506    0.795148     2.78275  0.00033726
1500   0.0318324    0.794784     3.16035  -0.000467415
1510   0.0428989     0.79713     4.10056  0.000338976
1520   0.0250529    0.793347     3.44359  0.00013291
1530   0.0402407    0.796566     2.78114  -0.000249919
1540   0.0300513    0.794406     3.39509  8.2097e-05
1550   0.0385987    0.796218       2.781  8.3475e-05
1560   0.0283818    0.794053      2.7828  -0.000510031
1570   0.0487993     0.79838     2.68535  -0.000818988
1580   0.0447615    0.797524     4.05395  -8.88594e-06
1590   0.0489771    0.798418     3.91109  0.000224343
1600   0.0402747    0.796573     4.19529  0.000120481
1610   0.0465674    0.797907      1.4609  -0.000461482
1620   0.0495043     0.79853     2.21522  -3.45739e-05
1630   0.0472589    0.798054     3.20411  0.000276788
1640   0.0439686    0.797356     4.24098  -0.000619953
1650    0.059658    0.800682     2.82522  -0.000398956
1660   0.0519477    0.799048     3.06272  0.000771873
1670   0.0442205     0.79741      4.2413  0.000773687
1680   0.0364739    0.795768     4.57266  -3.45878e-05
1690   0.0449123    0.797556     2.77948  -3.37161e-05
1700   0.0371483    0.795911     5.13674  0.00067258
1710   0.0314607    0.794705     3.91192  0.000293969
1720   0.0312689    0.794665     3.58106  -7.25783e-05
1730   0.0329122    0.795013     5.18367  -0.000677305
1740    0.044815    0.797536       3.297  0.000242917
1750   0.0280539    0.793983      3.2047  0.000729383
1760   0.0302273    0.794444      4.9954  -0.000494706
1770    0.037948     0.79608     3.15538  -0.000165375
1780   0.0335348    0.795145     1.41176  0.000217046
1790   0.0336071     0.79516     4.05146  -0.000139659
1800    0.036328    0.795737     3.95659  -0.000537631
1810   0.0443597    0.797439     3.86126  -0.00048551
1820   0.0460382    0.797795     4.56925  -0.000460441
1830   0.0535685    0.799391     4.70894  0.000177481
1840   0.0424886    0.797043     4.33401  0.000216737
1850   0.0492338    0.798472     3.57858  3.16774e-05
1860    0.041855    0.796908     2.63699  0.000244492
1870    0.044344    0.797436     4.14477  -0.000636882
1880   0.0545927    0.799608     3.53082  0.000513546
1890    0.034073    0.795259     4.00444  0.000579896
1900   0.0429948     0.79715     3.90814  -0.000597991
1910   0.0460329    0.797794      1.6464  0.000246854
1920   0.0380577    0.796103     2.40045  -8.91406e-06
1930   0.0462111    0.797832      5.2282  0.000140222
1940   0.0352532    0.795509      4.1923  0.000368713
1950   0.0388369    0.796269     4.94566  -0.000412763
1960   0.0435085    0.797259     3.86002  -0.000386696
1970   0.0465708    0.797908     4.33088  0.00103386
1980   0.0228314    0.792876     3.86379  0.000289189
1990    0.040787    0.796682     5.17952  -0.000549006
2000   0.0338115    0.795203      4.2384  -0.00028012
2010   0.0463894     0.79787     4.19027  -0.000320487
2020   0.0402213    0.796562     4.09595  0.000481363
2030   0.0367622    0.795829     4.19101  0.000128102
2040   0.0376592    0.796019     5.83958  0.000128707
2050    0.034188    0.795283     5.03897  -0.000513982
2060   0.0479389    0.798198     5.31967  -7.60373e-05
2070   0.0357088    0.795606     5.65103   0.0005939
2080   0.0360609     0.79568      4.9907  0.000198107
2090   0.0317466    0.794766     5.17966  -7.65434e-05
2100   0.0375917    0.796005     4.09393  -4.85355e-05
2110   0.0327174    0.794972     6.16882  0.000281329
2120   0.0319651    0.794812     4.33028  -7.43791e-06
2130   0.0328661    0.795003     3.62261  -0.000366576
2140   0.0392967    0.796366     3.62196  -0.00017353
2150   0.0363367    0.795739     6.40365  -0.00032687
2160   0.0458341    0.797752     4.94018  -7.95815e-06
2170   0.0364959    0.795772     4.51786  0.000254601
2180    0.040742    0.796672     2.44338  0.000325731
2190   0.0299813    0.794392     4.47158  -0.00020338
2200   0.0448096    0.797535      4.1865  -0.000550834
2210   0.0409979    0.796727     3.05614  3.2746e-05
2220   0.0441547    0.797396     2.39576  6.12883e-05
2230   0.0397722    0.796467     3.95332  0.000172911
2240   0.0406965    0.796663     4.61319  -0.000470846
2250   0.0491891    0.798463     3.66921  0.000243901
2260   0.0358185    0.795629     3.29299  0.000397677
2270   0.0412355    0.796777     2.49105  -0.000359602
2280   0.0430105    0.797153     3.71734  -0.000896038
2290   0.0591563    0.800576     2.96057  -0.000333324
2300    0.049677    0.798566     4.80027  0.000624368
2310   0.0466689    0.797929     2.30162  0.000173994
2320   0.0461971    0.797829     2.44449  -0.000122675
2330   0.0491224    0.798449     4.94188  -0.000335517
2340   0.0529074    0.799251     3.81019  -0.000378836
2350   0.0566992    0.800055     4.23435  -6.70809e-05
2360    0.054249    0.799535     5.36476  -0.000565906
2370   0.0680173    0.802454     5.36282  -9.60447e-05
2380   0.0561699    0.799943     4.79976  0.000430043
2390   0.0594164    0.800631     3.29092  0.000174908
2400   0.0526718    0.799201     3.19739  1.73081e-05
2410   0.0590703    0.800557     4.79843  -0.00012491
2420     0.05517    0.799731     4.32738  -5.42581e-05
2430   0.0601554    0.800787     3.99685  0.000175934
2440   0.0516513    0.798985     4.46918  0.000333787
2450   0.0534797    0.799372     3.62086  -0.000226298
2460   0.0561772    0.799944     4.51432  0.000306708
2470   0.0473455    0.798072     4.79879  3.24085e-05
2480   0.0555291    0.799807     4.23182  -0.000703737
2490   0.0614203    0.801055     4.60813  0.000539305
2500    0.044743    0.797521      4.9406  0.000785638
2510   0.0457075    0.797725     6.40089  -5.29505e-05
2520    0.045802    0.797745     4.93986  -0.000358463
2530   0.0528768    0.799245     5.64564  -0.000300788
2540   0.0518178     0.79902     6.25753  0.000237223
2550   0.0481323    0.798239     6.21092  0.00015012
2560   0.0488154    0.798384     5.26832  0.000618407
2570   0.0357642    0.795617     5.78772  9.23609e-05
2580   0.0469681    0.797992     4.98472  -0.000594392
2590    0.047652    0.798137     5.31488  -0.000450065
2600   0.0559694      0.7999     4.79516  0.000298581
2610   0.0416804    0.796871     4.74864  0.000400897
2620   0.0479515    0.798201     4.70098  -9.76196e-05
2630   0.0436328    0.797285     4.98462  0.000226003
2640   0.0434315    0.797243     5.64403  -0.000629894
2650   0.0562307    0.799955     6.15998  -6.86135e-05
2660   0.0448037    0.797533     6.44465  0.000507247
2670   0.0460857    0.797805     5.12477  0.000257357
2680   0.0396566    0.796442     5.36103  0.000108994
2690   0.0439058    0.797343     4.22947  -0.000291579
2700   0.0454882    0.797678     5.78376  0.000273427
2710   0.0384373    0.796184      6.2088  0.00015424
2720   0.0424034    0.797025     4.55816  -0.000143259
2730   0.0413025    0.796791     5.83014  0.000229911
2740   0.0378052     0.79605     5.17036  3.56423e-05
2750   0.0405896     0.79664     5.07572  -0.000623749
2760   0.0502801    0.798694     4.79189  5.80698e-06
2770   0.0404735    0.796616     5.12247  0.000591046
2780   0.0384592    0.796189     5.17004  -0.000144735
2790   0.0433682    0.797229     5.12196  0.000458599
2800   0.0292873    0.794244     4.74666  -0.000130478
2810   0.0459777    0.797782     4.50925  -0.000128706
2820   0.0318614     0.79479     5.50127  -0.00031288
2830   0.0522354    0.799109     5.96978  -0.000720835
2840   0.0462781    0.797846     5.31083  0.000353584
2850   0.0451637     0.79761     4.74422  0.000750277
2860   0.0312725    0.794665     3.89677  -0.000436426
2870   0.0538922     0.79946     4.46053  -0.000450276
2880   0.0402781    0.796574     5.35712  0.00143969
2890   0.0250985    0.793357     4.13253  3.65846e-05
2900   0.0395464    0.796419     5.02658  -0.000191007
2910   0.0289186    0.794166     4.55618  0.000282159
2920   0.0339032    0.795223      4.1311  -7.76118e-06
2930   0.0290738    0.794199     4.22542  0.000283719
2940   0.0282288     0.79402     3.89493  6.91899e-05
2950     0.02769    0.793906     5.35684  -0.000269898
2960   0.0336268    0.795164     4.74344  -0.000239289
2970   0.0324758     0.79492     3.14037  0.000471042
2980   0.0242059    0.793167     4.31997  7.12853e-06
2990   0.0323332     0.79489     5.21508  -0.000379483
3000   0.0317956    0.794776     4.97938  0.000488758
3010   0.0225581    0.792818     4.97988  -3.94106e-05
3020   0.0325838    0.794943     3.42191  0.00018004
3030   0.0189573    0.792055     4.36612  -7.07928e-05
3040   0.0339996    0.795243     4.74137  -6.46766e-06
3050   0.0190866    0.792082     4.74266  0.000351278
3060   0.0269741    0.793754      5.1665  -0.000539206
3070   0.0298707    0.794368     3.94039  0.000290468
3080   0.0211647    0.792523     5.02557  0.000337612
3090   0.0231185    0.792937     5.73241  -0.000494663
3100    0.031058     0.79462     3.56219  0.000449938
3110   0.0141197     0.79103     4.83693  0.000559888
3120   0.0198602    0.792246     4.55337  0.000310209
3130  0.00791557    0.789714     4.41424  5.67186e-05
3140   0.0187258    0.792006     4.83647  -0.000131701
3150   0.0105496    0.790273      4.3652  -3.83561e-05
3160    0.019493    0.792168     4.60044  -0.000418683
3170   0.0189232    0.792048     5.30724  0.000486916
3180  0.00975464    0.790104     5.12017  0.000200708
3190   0.0149091    0.791197     6.53321  -3.7175e-05
3200   0.0104981    0.790262     5.73214  -6.99632e-05
3210   0.0163083    0.791493     5.21311  -0.00029366
3220   0.0163713    0.791507      6.2024  -0.000615735
3230   0.0286231    0.794104     7.00297  -5.44127e-05
3240   0.0174596    0.791737     7.05105  0.000941016
3250  0.00980272    0.790114     6.53266  0.000460779
3260  0.00824402    0.789784     6.01399  -0.000457095
3270   0.0189446    0.792052     6.01257  -0.000441418
3280   0.0170724    0.791655     7.52104  0.000559692
3290  0.00775079     0.78968     7.71009  0.000901156
3300  -0.000950746    0.787835     6.20208  -0.000151034
3310   0.0107715     0.79032     6.48297  -0.000198754
3320  0.00302433    0.788678     5.82388  0.00033636
3330  0.00404426    0.788894      6.1067  -0.000216315
3340  0.00735064    0.789595      6.3414  0.000730227
3350  -0.0105603    0.785798     6.95622  0.000158486
3360  0.00418092    0.788923     7.00168  -0.00123058
3370   0.0140514    0.791015     7.04732  0.000126752
3380  0.00164588    0.788386     7.33166  0.000683814
3390  0.000375124    0.788116     7.09605  -0.000185172
3400  0.00534932    0.789171      5.0206  -0.000366393
3410  0.00770298    0.789669     6.85914  -0.000384334
3420    0.013036      0.7908     6.81106  -0.000104326
3430  0.00978951    0.790112     6.34048  0.000143048
3440    0.010175    0.790193     7.18889  0.000458712
3450  0.000615271    0.788167     6.15243  0.000426162
3460  0.00165178    0.788387     7.89592  -8.71728e-05
3470  0.00235873    0.788537     6.33992  -0.000204083
3480  0.00573344    0.789252     6.52755  0.000762889
3490   -0.012899    0.785303     6.71798  0.000696778
3500  -0.00820212    0.786298     7.14215  6.49015e-05
3510  -0.0141971    0.785027     7.61443  0.000198374
3520  -0.0121696    0.785457     7.33065  -0.000169593
3530  -0.0108052    0.785746     6.52916  -0.000876199
3540  0.00535438    0.789172     8.64795  -0.000507388
3550  -0.000657452    0.787897     8.08272  0.000652699
3560  -0.00769961    0.786405     7.18866  0.000451977
3570  -0.00969699    0.785981      8.2259  -0.000324198
3580  -0.00121564    0.787779     8.03602  -0.000578406
3590  0.00187112    0.788433      9.6862  -7.17488e-05
3600  0.000219338    0.788083      8.2714  0.000352459
3610  -0.00517806    0.786939     9.07386  8.10426e-05
3620  -0.00140151     0.78774     9.40342  -8.84804e-05
3630  -0.00340846    0.787314     8.17819  -7.21425e-05
3640  4.13368e-05    0.788045     8.36549  -0.000396847
3650  0.00452849    0.788997     7.56364  -0.00058642
3660   0.0117697    0.790531     7.79879  -0.000296416
3670   0.0104568    0.790253     7.56322  0.000372045
3680  0.00432883    0.788954     7.13994  0.000200736
3690  0.00644207    0.789402     7.23398  -0.000728708
3700    0.018903    0.792043     7.89215  -0.000661135
3710   0.0196648    0.792205     7.79824  0.000494284
3720  0.00901732    0.789948       6.667  -0.000197756
3730   0.0236199    0.793043     8.83405  -9.23048e-05
3740   0.0108634    0.790339     6.94923  0.000808584
3750  0.00744821    0.789615     6.95038  -0.000232175
3760   0.0155069    0.791324     7.23218  -0.000615342
3770    0.019755    0.792224     6.28903  0.000150514
3780   0.0124966    0.790685      6.8561  0.000814447
3790   0.0034661    0.788771     8.36476  4.63281e-05
3800   0.0115701    0.790489     7.37399  0.000153143
3810  0.000403245    0.788122     7.32706  0.000573794
3820  9.42029e-05    0.788057      7.5624  -0.000532274
3830   0.0110487    0.790379     6.76022  -0.000497785
3840   0.0100499    0.790167     7.51395  0.000276563
3850  0.00551748    0.789206     7.93871  8.25751e-05
3860   0.0083984    0.789817     7.84356  0.00054393
3870  -0.00536113      0.7869     7.70365  0.00027825
3880   0.0028334    0.788637     7.79681  0.000387666
3890  -0.0131144    0.785257     7.84513  0.000440307
3900  -0.00597274    0.786771     6.47726  6.91758e-05
3910   -0.014498    0.784964     7.84485  0.000353865
3920    -0.01305    0.785271     8.83433  3.39834e-05
3930  -0.0151776     0.78482     8.12707  -0.000127497
3940  -0.0105001    0.785811     8.88071  -0.000217201
3950  -0.0108336     0.78574     7.89053  -2.05137e-05
3960  -0.0100898    0.785898     9.11563  0.00019559
3970  -0.0147454    0.784911     8.12647  -0.000363384
3980  -0.00282215    0.787438     8.26556  -3.80045e-05
3990  -0.0139853    0.785072      7.7958  5.04337e-05
4000  -0.00383082    0.787225     7.60504  -0.000219549
4010  -0.00959435    0.786003     8.07812  0.000940524
4020  -0.0226413    0.783238     8.31502  7.00898e-05
4030  -0.0109961    0.785706     8.21932  -0.000583594
4040  -0.0109694    0.785712     8.12491  -3.9045e-05
4050  -0.0102152    0.785871     8.17198  0.000198585
4060  -0.0149411     0.78487     8.59618  0.000180448
4070  -0.0138242    0.785106     9.30358  0.000365001
4080  -0.0222412    0.783322     8.54948  -2.04153e-05
4090  -0.0134159    0.785193     7.93608  -0.00040548
4100  -0.0141316    0.785041     9.35019  0.000403455
4110   -0.021485    0.783483     7.51289  -0.000389859
4120  -0.00633437    0.786694     8.69032  -0.000759191
4130  -0.00630119    0.786701     9.30285  0.000219043
4140  -0.0107152    0.785765     9.58534  0.000831882
4150  -0.0229388    0.783174     9.35102  -0.000244281
4160  -0.00582961    0.786801     8.17036  -0.00052194
4170     -0.0125    0.785387     7.79428  -0.000208751
4180  -0.0016546    0.787686     7.69927  -0.000114492
4190  -0.0102102    0.785872     9.06631  0.000501342
4200  -0.0116814    0.785561     8.17133  -5.89823e-05
4210  -0.00903054    0.786123     8.64238  -0.000303052
4220  -0.0056204    0.786845     8.07563  0.000787508
4230  -0.0247807    0.782784     8.45503  1.53255e-05
4240  -0.00592691     0.78678     8.73578  -0.000868902
4250  -0.00740266    0.786468     9.58391  0.000450543
4260  -0.0149378     0.78487     8.31286  -0.000363272
4270  -0.000137227    0.788008     9.25421  -0.000590427
4280  -0.00312922    0.787373     8.26431  0.000527944
4290  -0.0106961    0.785769     9.30202  -0.000118288
4300  -0.000763465    0.787875     9.48895  0.00039807
4310  -0.0186575    0.784082     10.0568  0.000511718
4320  -0.0109978    0.785706     8.59338  -0.000556655
4330  -0.00752442    0.786442     9.48895  5.49048e-05
4340  -0.0120959    0.785473     8.45222  0.000208174
4350  -0.0116879    0.785559     8.40501  -0.000291227
4360  -0.00627138    0.786707     8.26335  0.000325337
4370  -0.0181947     0.78418     8.59466  -3.47283e-06
4380  -0.00620192    0.786722      8.8277  -1.37789e-06
4390  -0.0181671    0.784186     8.68719  0.00061693
4400  -0.0185405    0.784107      8.7349  -5.9629e-05
4410  -0.0169745    0.784439     8.26243  -4.01978e-05
4420  -0.0177366    0.784277     7.74358  -0.000333056
4430  -0.0103134    0.785851     7.64907  -0.000235859
4440  -0.0130194    0.785277     8.02686  0.000545027
4450  -0.0212139     0.78354     6.56527  5.64795e-05
4460   -0.014149    0.785038     6.84745  -4.00995e-05
4470  -0.0204119     0.78371     6.80006  0.000686402
4480   -0.027877    0.782128     7.36621  0.000570532
4490  -0.0318226    0.781291      6.8008  0.000237222
4500  -0.0326215    0.781122     7.50723  -0.000196729
4510   -0.027888    0.782125     6.84681  0.000120144
4520  -0.0350243    0.780613     7.46016  0.000198824
4530  -0.0318645    0.781283     7.79046  0.000220392
4540  -0.0394322    0.779678     7.41401  -0.000397381
4550  -0.0239168    0.782967     6.70445  0.000262067
4560  -0.0446735    0.778567     7.13041  0.000379581
4570  -0.0315085    0.781358     7.69504  -0.000577576
4580   -0.033122    0.781016     8.21421  0.000241905
4590  -0.0363466    0.780333     7.55379  -9.92364e-05
4600  -0.0311373    0.781437     6.89272  6.23848e-05
4610  -0.0375943    0.780068     6.23391  0.000707393
4620  -0.0452851    0.778438     6.61151  0.000103272
4630  -0.0396597     0.77963     7.60081  -0.000360994
4640  -0.0380653    0.779968       6.045  -1.77158e-05
4650  -0.0393054    0.779705     8.30747  -9.94753e-05
4660  -0.0360758     0.78039     6.75198  -0.000425333
4670  -0.0307987    0.781508      7.0815  -3.88483e-05
4680  -0.0352988    0.780555     7.59989  -0.000121761
4690  -0.0283635    0.782025     8.63731  -8.0199e-05
4700  -0.0336948    0.780895     7.03484  0.000616227
4710   -0.040688    0.779412     8.26045  -0.000800513
4720  -0.0176845    0.784288     8.96605  -0.000223795
4730  -0.0362121    0.780361     9.76781  0.00127825
4740  -0.0432495    0.778869     8.21334  -0.000184174
4750  -0.0325287    0.781142     6.84464  -3.80889e-05
4760  -0.0424877    0.779031     9.34374  0.000727865
4770   -0.047086    0.778056     8.63616  -5.92355e-05
4780   -0.041303    0.779282     7.97606  -0.000496098
4790   -0.037164    0.780159     8.06946  4.47253e-05
4800  -0.0421975    0.779092     8.44688  0.000169509
4810  -0.0405542    0.779441     6.98612  -3.87497e-05
4820  -0.0414225    0.779257     7.88009  0.000338891
4830   -0.047332    0.778004     7.97445  -0.000375757
4840  -0.0339074     0.78085     8.11432  0.000193959
4850  -0.0512112    0.777182     8.35187  0.000994374
4860  -0.0537949    0.776634     8.49372  0.000258917
4870  -0.0563896    0.776084     8.11616  2.66721e-05
4880  -0.0543283    0.776521     8.44568  4.84934e-05
4890  -0.0573594    0.775879     8.11584  -0.00010091
4900  -0.0523102    0.776949     7.97395  0.000283494
4910  -0.0630293    0.774677      8.5873  6.93446e-05
4920   -0.053697    0.776655     7.31357  -0.000206881
4930  -0.0588917    0.775554     8.11529  0.000305892
4940  -0.0598149    0.775358     7.17223  -7.94396e-05
4950  -0.0573029    0.775891     7.31384  9.29514e-05
4960  -0.0616739    0.774964     7.69094  -0.000360797
4970   -0.050087     0.77742     7.54822  -0.000512056
4980  -0.0514328    0.777135     7.40724  -3.84685e-05
4990  -0.0493176    0.777583     6.22871  0.000435119
