Time   Number   
ps   
0          21          36
10          26          31
20          22          33
30          21          34
40          17          39
50          23          27
60          22          33
70          18          32
80          23          29
90          25          26
100          19          35
110          22          37
120          20          37
130          22          30
140          26          32
150          20          33
160          21          32
170          23          34
180          20          36
190          20          39
200          21          30
210          23          28
220          22          30
230          17          36
240          22          33
250          22          31
260          22          32
270          21          32
280          19          40
290          22          27
300          21          34
310          21          32
320          21          35
330          19          36
340          22          35
350          21          28
360          23          36
370          20          35
380          27          30
390          18          34
400          23          29
410          24          36
420          21          37
430          21          32
440          25          27
450          22          37
460          22          32
470          26          38
480          23          33
490          21          36
500          23          31
510          23          36
520          23          38
530          20          35
540          23          32
550          22          36
560          22          36
570          20          34
580          22          29
590          18          41
600          21          31
610          21          36
620          20          28
630          22          38
640          21          34
650          22          35
660          22          34
670          22          31
680          20          35
690          19          41
700          23          38
710          23          31
720          21          35
730          20          36
740          22          31
750          24          31
760          22          35
770          23          30
780          21          29
790          22          33
800          22          33
810          21          39
820          19          35
830          23          25
840          21          36
850          23          32
860          23          34
870          22          33
880          23          34
890          24          29
900          23          27
910          18          40
920          20          37
930          21          34
940          18          36
950          21          31
960          17          33
970          17          39
980          21          32
990          19          33
1000          20          30
1010          22          26
1020          24          31
1030          21          28
1040          17          25
1050          21          33
1060          22          31
1070          19          30
1080          24          29
1090          20          26
1100          21          32
1110          19          33
1120          19          32
1130          20          35
1140          18          30
1150          21          33
1160          20          33
1170          20          29
1180          19          33
1190          21          32
1200          20          34
1210          18          36
1220          18          28
1230          22          34
1240          19          31
1250          20          27
1260          21          32
1270          20          27
1280          21          31
1290          23          32
1300          16          34
1310          20          32
1320          23          30
1330          20          37
1340          21          29
1350          20          29
1360          21          34
1370          19          30
1380          22          28
1390          18          31
1400          19          27
1410          19          32
1420          22          29
1430          23          29
1440          22          33
1450          20          29
1460          20          30
1470          21          32
1480          15          32
1490          25          30
1500          18          32
1510          19          35
1520          23          26
1530          17          32
1540          19          32
1550          19          35
1560          20          33
1570          21          27
1580          19          35
1590          21          34
1600          23          29
1610          22          30
1620          23          32
1630          21          38
1640          23          29
1650          24          35
1660          22          30
1670          20          36
1680          23          33
1690          20          29
1700          26          32
1710          21          33
1720          20          32
1730          19          26
1740          24          28
1750          24          29
1760          22          29
1770          20          28
1780          19          34
1790          21          31
1800          23          34
1810          21          28
1820          24          29
1830          19          35
1840          22          32
1850          21          30
1860          20          36
1870          22          36
1880          19          32
1890          24          31
1900          22          32
1910          23          33
1920          19          33
1930          21          35
1940          20          32
1950          20          34
1960          19          35
1970          19          29
1980          22          32
1990          20          34
2000          18          36
2010          24          27
2020          21          28
2030          21          35
2040          20          34
2050          21          31
2060          22          24
2070          20          36
2080          21          31
2090          23          34
2100          21          34
2110          22          29
2120          24          30
2130          21          32
2140          22          35
2150          24          26
2160          20          34
2170          23          31
2180          24          31
2190          22          31
2200          23          32
2210          26          30
2220          22          29
2230          19          37
2240          19          30
2250          22          29
2260          20          31
2270          19          30
2280          19          32
2290          22          32
2300          23          30
2310          20          33
2320          23          34
2330          20          39
2340          23          34
2350          19          37
2360          20          33
2370          22          27
2380          22          29
2390          20          33
2400          19          37
2410          19          30
2420          25          28
2430          20          34
2440          20          35
2450          20          28
2460          21          32
2470          20          28
2480          22          30
2490          17          28
2500          18          32
2510          18          35
2520          19          31
2530          18          31
2540          20          29
2550          16          34
2560          20          28
2570          20          30
2580          18          31
2590          17          31
2600          17          31
2610          19          28
2620          21          28
2630          21          29
2640          18          33
2650          21          32
2660          22          29
2670          21          32
2680          20          30
2690          21          31
2700          22          30
2710          22          29
2720          16          38
2730          19          38
2740          22          28
2750          24          29
2760          20          34
2770          20          34
2780          22          33
2790          23          30
2800          19          31
2810          20          34
2820          24          28
2830          17          32
2840          20          33
2850          22          29
2860          20          34
2870          20          31
2880          18          34
2890          20          34
2900          22          30
2910          22          29
2920          21          32
2930          22          30
2940          19          30
2950          18          30
2960          19          31
2970          18          30
2980          18          30
2990          22          26
3000          19          28
3010          23          27
3020          19          28
3030          21          32
3040          23          32
3050          22          26
3060          21          28
3070          21          29
3080          20          30
3090          25          24
3100          21          30
3110          20          33
3120          20          31
3130          20          30
3140          21          31
3150          19          27
3160          20          32
3170          20          29
3180          19          29
3190          21          33
3200          19          34
3210          21          27
3220          18          35
3230          20          37
3240          21          37
3250          20          39
3260          20          33
3270          15          38
3280          21          32
3290          20          37
3300          20          33
3310          21          31
3320          20          36
3330          19          35
3340          21          29
3350          22          27
3360          23          31
3370          22          32
3380          22          31
3390          22          27
3400          23          28
3410          20          33
3420          21          34
3430          22          33
3440          26          24
3450          21          31
3460          20          38
3470          22          34
3480          21          36
3490          20          33
3500          22          30
3510          21          29
3520          20          33
3530          24          34
3540          25          31
3550          25          31
3560          22          31
3570          20          29
3580          22          32
3590          22          35
3600          21          31
3610          21          32
3620          23          33
3630          21          27
3640          21          32
3650          20          30
3660          24          31
3670          23          24
3680          24          32
3690          23          27
3700          21          32
3710          22          36
3720          26          29
3730          25          35
3740          26          35
3750          28          33
3760          21          36
3770          24          37
3780          24          36
3790          23          32
3800          21          31
3810          24          26
3820          22          33
3830          21          36
3840          23          34
3850          22          32
3860          25          30
3870          21          46
3880          25          38
3890          26          27
3900          20          36
3910          23          30
3920          22          34
3930          16          41
3940          23          29
3950          23          27
3960          20          37
3970          23          28
3980          21          28
3990          22          28
4000          22          29
4010          21          29
4020          20          31
4030          24          29
4040          22          29
4050          19          31
4060          21          27
4070          20          30
4080          18          36
4090          20          29
4100          23          28
4110          17          34
4120          24          26
4130          23          29
4140          22          29
4150          23          32
4160          23          34
4170          21          30
4180          22          33
4190          20          30
4200          20          30
4210          24          32
4220          24          32
4230          20          32
4240          25          27
4250          22          36
4260          26          31
4270          22          27
4280          25          29
4290          27          27
4300          26          26
4310          26          31
4320          24          30
4330          26          28
4340          23          36
4350          22          31
4360          22          30
4370          24          27
4380          28          24
4390          22          32
4400          27          32
4410          25          27
4420          21          27
4430          22          34
4440          21          28
4450          20          29
4460          21          30
4470          24          34
4480          24          26
4490          24          37
4500          22          31
4510          21          31
4520          21          36
4530          21          34
4540          22          33
4550          23          33
4560          23          41
4570          24          32
4580          22          36
4590          22          37
4600          22          28
4610          22          27
4620          24          29
4630          22          39
4640          21          31
4650          22          32
4660          20          28
4670          24          28
4680          23          28
4690          20          34
4700          22          28
4710          23          29
4720          24          33
4730          24          35
4740          25          29
4750          23          37
4760          20          31
4770          20          34
4780          24          26
4790          21          28
4800          23          28
4810          20          38
4820          24          26
4830          22          37
4840          20          29
4850          21          31
4860          21          34
4870          19          32
4880          24          27
4890          22          29
4900          22          35
4910          22          31
4920          21          31
4930          24          29
4940          21          31
4950          21          35
4960          26          29
4970          20          32
4980          22          28
4990          22          37
5000          24          31
5010          23          33
5020          23          27
5030          19          40
5040          24          26
5050          21          37
5060          25          27
5070          23          32
5080          20          40
5090          20          34
5100          21          32
5110          23          35
5120          24          32
5130          23          26
5140          20          32
5150          21          32
5160          24          30
5170          23          30
5180          21          34
5190          24          28
5200          24          33
5210          24          28
5220          24          31
5230          25          30
5240          20          32
5250          21          31
5260          22          30
5270          21          24
5280          25          32
5290          24          34
5300          22          32
5310          20          35
5320          21          31
5330          25          28
5340          19          33
5350          23          28
5360          22          27
5370          18          35
5380          23          32
5390          20          33
5400          21          31
5410          19          32
5420          25          29
5430          23          34
5440          24          32
5450          21          32
5460          24          36
5470          20          38
5480          22          36
5490          24          32
5500          24          29
5510          23          33
5520          22          29
5530          25          27
5540          25          30
5550          23          32
5560          24          32
5570          24          29
5580          25          33
5590          22          34
5600          24          37
5610          21          29
5620          24          31
5630          24          36
5640          25          33
5650          19          33
5660          20          34
5670          25          30
5680          20          32
5690          22          32
5700          25          24
5710          21          27
5720          23          34
5730          22          32
5740          25          32
5750          23          32
5760          22          29
5770          23          27
5780          24          28
5790          23          29
5800          23          34
5810          22          34
5820          22          30
5830          20          32
5840          19          31
5850          20          29
5860          19          38
5870          22          29
5880          21          30
5890          23          29
5900          23          34
5910          23          28
5920          20          30
5930          21          34
5940          22          30
5950          24          33
5960          21          34
5970          22          33
5980          21          32
5990          23          26
6000          21          33
6010          21          25
6020          22          29
6030          23          31
6040          22          28
6050          23          32
6060          21          34
6070          20          35
6080          21          35
6090          23          30
6100          21          35
6110          24          31
6120          25          32
6130          22          33
6140          23          34
6150          23          32
6160          26          27
6170          26          33
6180          24          29
6190          22          34
6200          25          27
6210          21          27
6220          23          29
6230          23          31
6240          22          32
6250          24          33
6260          25          32
6270          21          30
6280          22          29
6290          20          36
6300          21          25
6310          20          33
6320          21          29
6330          22          38
6340          22          34
6350          19          36
6360          22          28
6370          25          27
6380          22          28
6390          19          36
6400          19          32
6410          23          31
6420          21          33
6430          22          31
6440          19          33
6450          25          28
6460          24          30
6470          24          30
6480          24          32
6490          23          31
6500          21          35
6510          22          31
6520          23          26
6530          23          31
6540          20          39
6550          21          32
6560          22          31
6570          23          34
6580          25          31
6590          25          30
6600          22          36
6610          20          33
6620          23          29
6630          20          35
6640          23          29
6650          23          40
6660          27          29
6670          23          36
6680          22          38
6690          20          31
6700          20          37
6710          23          31
6720          22          30
6730          25          30
6740          25          31
6750          25          31
6760          23          34
6770          25          31
6780          26          34
6790          24          30
6800          21          34
6810          22          34
6820          22          32
6830          25          30
6840          24          32
6850          21          33
6860          23          29
6870          22          31
6880          24          30
6890          23          24
6900          21          25
6910          22          30
6920          22          26
6930          21          23
6940          21          31
6950          18          30
6960          24          30
6970          26          29
6980          25          30
6990          22          34
7000          23          37
7010          22          31
7020          22          37
7030          22          33
7040          25          30
7050          24          42
7060          24          29
7070          25          31
7080          27          28
7090          24          27
7100          26          28
7110          24          38
7120          26          32
7130          24          32
7140          22          31
7150          22          31
7160          24          33
7170          22          34
7180          23          30
7190          24          31
7200          24          32
7210          22          26
7220          23          29
7230          19          39
7240          19          33
7250          20          32
7260          21          29
7270          23          33
7280          23          35
7290          23          33
7300          25          31
7310          22          34
7320          22          34
7330          26          34
7340          22          36
7350          24          30
7360          22          34
7370          21          30
7380          28          31
7390          25          29
7400          27          35
7410          24          31
7420          22          29
7430          22          34
7440          23          27
7450          25          30
7460          27          29
7470          25          25
7480          22          40
7490          20          37
7500          24          36
7510          20          36
7520          23          37
7530          20          25
7540          21          29
7550          24          30
7560          25          30
7570          22          29
7580          21          31
7590          22          32
7600          24          30
7610          22          30
7620          18          29
7630          17          29
7640          20          31
7650          20          35
7660          19          38
7670          18          28
7680          20          28
7690          20          29
7700          21          27
7710          19          30
7720          21          36
7730          21          30
7740          21          30
7750          19          32
7760          20          33
7770          21          28
7780          22          28
7790          20          32
7800          22          30
7810          23          29
7820          21          30
7830          23          32
7840          22          33
7850          23          33
7860          20          31
7870          23          28
7880          21          29
7890          22          26
7900          21          29
7910          24          26
7920          22          33
7930          25          26
7940          18          30
7950          22          28
7960          23          33
7970          21          24
7980          24          26
7990          20          37
8000          21          31
8010          23          24
8020          21          32
8030          21          27
8040          24          29
8050          22          35
8060          21          34
8070          22          34
8080          21          34
8090          18          32
8100          23          29
8110          25          29
8120          22          33
8130          21          38
8140          19          30
8150          18          36
8160          24          28
8170          23          26
8180          23          34
8190          27          26
8200          25          30
8210          23          34
8220          26          31
8230          22          26
8240          20          26
8250          23          32
8260          26          24
8270          27          25
8280          27          31
8290          25          31
8300          23          30
8310          21          35
8320          25          33
8330          22          37
8340          23          34
8350          23          31
8360          20          29
8370          23          26
8380          25          27
8390          23          24
8400          19          29
8410          23          31
8420          23          27
8430          23          35
8440          24          27
8450          24          29
8460          22          34
8470          25          28
8480          22          30
8490          22          29
8500          25          24
8510          22          29
8520          26          32
8530          23          28
8540          23          28
8550          22          28
8560          24          30
8570          22          30
8580          21          38
8590          25          29
8600          22          30
8610          21          28
8620          20          35
8630          24          31
8640          24          27
8650          26          27
8660          23          33
8670          22          35
8680          27          26
8690          23          33
8700          24          34
8710          21          28
8720          23          23
8730          19          24
8740          22          33
8750          21          26
8760          20          29
8770          23          25
8780          23          28
8790          25          24
8800          19          28
8810          20          26
8820          19          27
8830          17          26
8840          20          27
8850          20          25
8860          21          32
8870          21          34
8880          21          28
8890          24          27
8900          24          29
8910          24          32
8920          24          24
8930          23          33
8940          21          37
8950          23          28
8960          27          25
8970          22          22
8980          22          32
8990          23          21
9000          26          29
9010          20          30
9020          24          29
9030          23          29
9040          24          27
9050          21          35
9060          23          30
9070          17          34
9080          17          33
9090          20          31
9100          20          28
9110          21          28
9120          22          28
9130          24          28
9140          23          31
9150          22          29
9160          18          29
9170          22          25
9180          21          28
9190          21          31
9200          22          32
9210          23          33
9220          20          27
9230          21          30
9240          23          25
9250          21          36
9260          22          25
9270          23          29
9280          19          28
9290          21          29
9300          21          26
9310          23          23
9320          22          33
9330          21          24
9340          23          24
9350          23          27
9360          15          29
9370          23          26
9380          22          29
9390          21          25
9400          24          22
9410          20          27
9420          18          31
9430          21          27
9440          21          29
9450          19          31
9460          22          31
9470          20          30
9480          22          28
9490          23          24
9500          20          32
9510          22          23
9520          18          34
9530          20          37
9540          18          31
9550          19          32
9560          20          32
9570          19          32
9580          19          32
9590          19          30
9600          20          36
9610          25          29
9620          20          31
9630          19          29
9640          19          33
9650          19          29
9660          25          25
9670          19          26
9680          22          30
9690          21          28
9700          20          28
9710          22          30
9720          20          27
9730          21          35
9740          21          24
9750          19          28
9760          21          26
9770          17          31
9780          22          28
9790          19          27
9800          17          30
9810          20          33
9820          19          26
9830          22          26
9840          23          26
9850          18          28
9860          16          28
9870          23          28
9880          19          31
9890          19          27
9900          20          29
9910          21          26
9920          20          27
9930          22          30
9940          23          27
9950          23          28
9960          20          33
9970          18          29
9980          19          24
9990          20          31
10000          16          31
