Time   C(t)   
ps   
0           1           1  -6.32165e-12   0.0402313
10    0.599005    0.894466    0.103075   0.0211787
20    0.576426    0.888524    0.247731  0.00212605
30    0.556484    0.883275   -0.256795  0.00151752
40    0.546076    0.880536  -0.0171322  0.00130167
50     0.53045    0.876424    0.319484  0.00139368
60    0.518203      0.8732    0.534933  0.000929955
70    0.511851    0.871529   -0.449835  0.000788462
80    0.502433     0.86905   -0.353984  0.000825739
90    0.495336    0.867182    0.174523  0.000683592
100    0.488761    0.865452    0.389807  0.000712149
110    0.481093    0.863434    0.630127  0.000745022
120    0.473861    0.861531    0.389784  0.000741932
130    0.466255    0.859529    0.678065  0.000888056
140      0.4561    0.856856    0.653967  0.000437512
150    0.457505    0.857226   -0.428106  0.000642666
160    0.443247    0.853473    0.220866  0.000906026
170    0.439384    0.852457    0.100237  0.000441089
180    0.434425    0.851152   -0.163923  0.000573669
190    0.427911    0.849437    0.196534  0.000483814
200    0.424749    0.848605   -0.164134  0.000480394
210    0.418303    0.846909  -0.0442553  0.000654376
220    0.411661    0.845161  0.00377589  0.000459604
230    0.409111     0.84449   -0.524191  0.000401421
240    0.403633    0.843048    0.532142  0.000525521
250      0.3986    0.841723    0.532306  0.000439651
260     0.39484    0.840734    0.291963  0.00011085
270    0.396383     0.84114    0.627594  0.000198542
280    0.390869    0.839689    0.387134  0.000643639
290     0.38351    0.837752    0.460013  0.000341678
300    0.384035     0.83789    0.555278  0.000278546
310     0.37794    0.836286    0.435423  0.000421385
320    0.375607    0.835672    0.363154  0.00033486
330    0.371242    0.834523      0.0504   0.0006676
340    0.362255    0.832158    0.315099  0.000580984
350    0.359623    0.831465    0.531485  0.000282136
360    0.356613    0.830673    0.194681  0.000213309
370    0.355356    0.830342    0.650168  0.000283234
380    0.350948    0.829182    0.362567  0.00042742
390    0.346808    0.828093    0.794871  0.000340159
400    0.344145    0.827392     1.75538  0.000378117
410    0.339246    0.826102    0.362567  0.000160199
420    0.340941    0.826549    0.530031  8.63105e-05
430    0.337519    0.825648    0.721898  0.000384504
440    0.333251    0.824525     1.68236  0.000310706
450    0.331305    0.824013    0.721499  0.000540343
460    0.322444    0.821681    0.265989  0.000564486
470    0.320016    0.821041    0.601879  0.000121358
480    0.320017    0.821042    0.625648  3.73587e-05
490    0.319268    0.820845     1.36956  0.000267245
500    0.314672    0.819635     0.74562  0.000403821
510    0.311192    0.818719     1.27354  0.000385964
520    0.306953    0.817604     1.29787  0.000358447
530    0.304023    0.816833     1.27368  0.000166111
540     0.30363    0.816729      1.2494  0.000128889
550    0.301445    0.816154     1.70554  4.88296e-05
560    0.302654    0.816472     1.36857  0.000209798
570    0.297249     0.81505     1.44098  0.000257166
580    0.297511    0.815119     1.89703  -3.08231e-05
590    0.297866    0.815212     1.24808  0.000405204
600    0.289406    0.812986     2.06515  0.000263269
610      0.2926    0.813826    0.935657  0.000245468
620    0.284497    0.811694    0.888611  0.000321475
630    0.286171    0.812134      1.3682  -4.3869e-05
640    0.285374    0.811925     1.07984  0.000194149
650    0.282288    0.811112    0.935892  0.000452039
660    0.276334    0.809545    0.480007  0.000257052
670    0.277147    0.809759     1.80052  4.58658e-06
680    0.276242    0.809521    0.791775  0.000272533
690    0.271696    0.808325    0.815615  0.000416675
700    0.267908    0.807328     1.05586  5.11706e-06
710    0.271594    0.808298     1.36742  0.000154389
720    0.264821    0.806515    0.839665  0.000500213
730     0.26159    0.805665     1.31946  0.000193572
740    0.260949    0.805496    0.887063  0.00022299
750     0.25713    0.804491     1.05497  0.000107554
760    0.258798     0.80493      1.5591  0.000214328
770    0.252843    0.803363     1.34332  0.000209527
780    0.254608    0.803827    0.454384  5.07191e-05
790    0.251829    0.803096    0.406119  0.000331508
800    0.247977    0.802082    0.983149  0.000235289
810    0.247123    0.801858     1.79867  0.000342616
820    0.241125    0.800279     1.15115  0.000440251
830    0.238318     0.79954     1.46316  0.000174003
840    0.237645    0.799363     -0.2662  5.75475e-05
850    0.237167    0.799237    0.717981  0.000330636
860    0.231032    0.797623    0.862122  0.000282305
870    0.231521    0.797751     1.10214  0.000200196
880    0.227028    0.796569    0.358111  0.000381321
890    0.223895    0.795744    0.982774  0.00017663
900    0.223496    0.795639     1.05453  0.000123215
910     0.22143    0.795096    0.694001  0.000250972
920    0.218476    0.794318    0.765754  0.000197466
930    0.217481    0.794056    0.645805  1.61022e-05
940    0.218154    0.794234    0.837297  0.000390313
950    0.209675    0.792002    0.885938  0.000287163
960    0.212411    0.792722     0.14149  -0.000125979
970    0.212194    0.792665     1.22115  0.000189664
980    0.208618    0.791724    0.716855  0.000323389
990    0.205727    0.790963      1.3654  0.000373712
1000    0.201144    0.789757    0.981554  0.000186131
1010    0.202004    0.789983     1.31695  8.75108e-05
1020    0.199393    0.789296    0.188489  0.000321056
1030    0.195583    0.788293    -0.29154  0.000291909
1040    0.193555     0.78776    0.260806  0.000337385
1050    0.188835    0.786517     1.00535  0.000113726
1060    0.191281    0.787161    0.356516  -0.000194975
1070    0.192735    0.787544    0.139638  0.000194171
1080    0.187397    0.786139     0.71641  0.000224281
1090    0.188249    0.786363    0.187669  0.000114938
1100    0.185098    0.785534    0.860034  0.000150031
1110    0.185248    0.785573    0.812331  -4.50917e-05
1120       0.186    0.785771    0.476231  4.02451e-05
1130    0.184443    0.785362      1.3884  0.000211202
1140    0.181776     0.78466     1.82061  -3.00653e-05
1150    0.185045     0.78552     1.50816  -8.52577e-05
1160    0.183481    0.785108     1.14766  -0.000100896
1170    0.187063    0.786051    0.978834  0.00010127
1180    0.181456    0.784575     1.50793  0.000551112
1190     0.17604     0.78315     1.31637  0.000238413
1200    0.176688     0.78332    0.715542  9.23581e-05
1210    0.174193    0.782664     1.43563  -1.92732e-05
1220    0.177073    0.783422     1.38732  -3.93622e-05
1230    0.174981    0.782871    0.954994  0.000143361
1240    0.174206    0.782667       1.123  0.000164118
1250    0.171698    0.782007     1.33924  0.000276632
1260    0.168673    0.781211     2.06016  0.00025686
1270    0.166561    0.780655     1.55591  5.81481e-05
1280     0.16751    0.780905    0.883405  -8.09655e-06
1290    0.166723    0.780698    0.642827  -2.86609e-05
1300    0.168084    0.781056     1.26679  4.31783e-05
1310    0.165859    0.780471     1.53134  8.41707e-05
1320      0.1664    0.780613    0.930428  0.000218166
1330    0.161496    0.779322    0.906705  0.000249171
1340    0.161417    0.779301     1.60279  0.000136657
1350    0.158763    0.778603     0.68985  0.000281297
1360    0.155791    0.777821      1.6267  0.000343885
1370    0.151885    0.776793     1.62701  6.02886e-05
1380    0.154585    0.777503     1.12234  -9.95711e-05
1390    0.153877    0.777317    0.857876  0.000117588
1400    0.152233    0.776884    0.570135  0.000226738
1410    0.149342    0.776123     1.43472  0.000185678
1420     0.14852    0.775907    0.810361  0.000300571
1430     0.14333    0.774541     1.05042  0.000150041
1440    0.145519    0.775117     1.67473    -6.8e-05
1450     0.14469    0.774899     1.67457  0.000171671
1460    0.142085    0.774214     1.69914  0.000239874
1470    0.139893    0.773637    0.954431  0.000235231
1480    0.137381    0.772976    0.978529  -0.000125536
1490    0.142404    0.774297     1.14616  0.000120974
1500    0.134961    0.772339     1.26702  0.000183504
1510    0.138734    0.773332     1.79475  -0.000146452
1520     0.13789     0.77311     1.36198  0.000126556
1530    0.136202    0.772665     2.13078  -6.8102e-05
1540    0.139252    0.773468     1.84175  6.37993e-05
1550    0.134926     0.77233      1.8906  0.00015336
1560    0.136185    0.772661     2.37085  -0.000152522
1570    0.137977    0.773132     1.79405  5.87597e-05
1580     0.13501    0.772352     1.57778  0.000185803
1590    0.134261    0.772154     2.03407  -7.34918e-05
1600     0.13648    0.772738     2.05786  5.39355e-05
1610    0.133182    0.771871     1.93807  0.000223828
1620    0.132003     0.77156     1.55373  0.00018193
1630    0.129544    0.770913     2.15399  0.000160992
1640    0.128783    0.770713     2.15401  4.4062e-05
1650    0.128662    0.770681     2.22577  9.22449e-05
1660    0.126939    0.770227     2.70634  -0.000148332
1670    0.131629    0.771462     2.75364  -1.96926e-05
1680    0.127332    0.770331     2.61023  4.94063e-05
1690    0.130641    0.771202     2.44147  9.82583e-05
1700    0.125367    0.769814     1.98608  0.000253882
1710    0.125563    0.769865     1.69745  8.25737e-05
1720    0.123716    0.769379     1.52937  -0.0001005
1730    0.127573    0.770394     2.00908  -0.000165125
1740    0.127018    0.770248     2.77718  0.000390472
1750    0.119764    0.768339     1.64939  0.000418079
1760    0.118657    0.768048      2.0576  -1.90016e-05
1770    0.120144    0.768439     2.27314  -0.000111099
1780    0.120879    0.768633     3.01764  4.59183e-05
1790    0.119225    0.768197      1.6241  0.000138333
1800    0.118112    0.767904     2.99309  2.98161e-05
1810    0.118629     0.76804     2.22455  2.77422e-06
1820    0.118057     0.76789     2.10427  5.19086e-05
1830    0.117591    0.767767       3.017  0.000150269
1840    0.115051    0.767099     2.72912  0.000172294
1850    0.114145     0.76686     2.15221  5.24864e-05
1860    0.114001    0.766823     2.32047  0.000217068
1870    0.109804    0.765718     2.68041  3.07668e-05
1880    0.113386    0.766661      2.8486  -0.000193911
1890    0.113682    0.766738     2.68006  0.00018492
1900    0.109688    0.765687     2.53627  0.000113522
1910    0.111411    0.766141     2.75223  -1.81977e-05
1920    0.110052    0.765783     2.75186  -6.25871e-05
1930    0.112663     0.76647     2.70324  -5.69593e-05
1940    0.111191    0.766083     2.67926  0.000269203
1950    0.107279    0.765053     3.01616   4.807e-05
1960    0.110229     0.76583     3.49588  0.000220601
1970    0.102867    0.763892     3.13672  0.000242683
1980    0.105376    0.764552     3.88056  -4.53182e-05
1990    0.103773    0.764131     2.82375  -4.00867e-05
2000    0.106178    0.764763     2.82352  -1.76087e-05
2010    0.104126    0.764223     2.70348  0.000261232
2020    0.100953    0.763388     2.60744  0.00030091
2030   0.0981075     0.76264     2.89598  0.000111393
2040   0.0987251    0.762802      2.9197  1.09956e-05
2050   0.0978875    0.762582     2.91949  0.000218552
2060    0.094354    0.761652     2.63163  0.000286371
2070   0.0921601    0.761074     1.98291  0.000157833
2080   0.0911974    0.760821     2.22316  4.56352e-05
2090   0.0912474    0.760834     1.64588  0.000231914
2100   0.0865591      0.7596     1.64649  0.000187049
2110   0.0875065     0.75985      1.7665  0.000244381
2120   0.0816715    0.758314     2.17525  0.000165295
2130   0.0842006     0.75898     2.53463  -6.61314e-05
2140   0.0829941    0.758662     2.31829  0.000154809
2150   0.0811044    0.758165     2.46257  6.41949e-05
2160   0.0817102    0.758324     2.82246  0.000218189
2170   0.0767406    0.757016     2.55847  0.000326661
2180    0.075177    0.756605     2.22232  6.53163e-05
2190   0.0754343    0.756672     2.12623  0.000191272
2200   0.0713515    0.755598     2.22258  0.000202857
2210   0.0713771    0.755605     2.58224  -0.000111325
2220    0.073578    0.756184     2.74996  6.63128e-05
2230   0.0700509    0.755256     3.03887  -1.42682e-05
2240   0.0738634    0.756259     3.01395  -0.000232287
2250   0.0746966    0.756478      2.4613  0.000348335
2260   0.0668967    0.754426     2.10207  0.000325608
2270   0.0681845    0.754764     2.22176  9.56878e-06
2280   0.0667053    0.754375     2.82183  9.03308e-05
2290   0.0663778    0.754289     3.20627  -1.92735e-05
2300   0.0670908    0.754477     3.35034  -8.29477e-05
2310   0.0680368    0.754726     2.26911  -3.67686e-05
2320   0.0678262     0.75467     2.55741  3.27148e-05
2330   0.0673825    0.754553     2.84536  9.09764e-05
2340   0.0660066    0.754191     2.43699  0.000248481
2350   0.0624129    0.753245     3.03801  0.000167311
2360   0.0626604    0.753311     2.94157  3.94525e-05
2370   0.0616238    0.753038     3.06192  5.12294e-05
2380   0.0616358    0.753041     2.74937  4.5862e-06
2390   0.0615321    0.753014     2.58111  -7.75348e-05
2400   0.0631865    0.753449     1.98012  -5.4083e-05
2410   0.0626138    0.753298     2.00436  5.7367e-05
2420   0.0620392    0.753147     1.78802  -5.43889e-05
2430   0.0637016    0.753585      2.3881  3.39717e-05
2440   0.0613598    0.752968     2.36458  0.000175521
2450   0.0601911    0.752661     2.55671  0.000223285
2460   0.0568941    0.751793     2.38892  -6.62109e-05
2470   0.0615154    0.753009     2.74818  -0.000190242
2480   0.0606989    0.752794     2.72413  6.99252e-05
2490   0.0601169    0.752641     2.36416  0.00011769
2500   0.0583451    0.752175     2.98838  0.000177344
2510     0.05657    0.751708     2.96456  0.000106343
2520   0.0562183    0.751615     2.36435  -0.000149759
2530   0.0595652    0.752496     3.03627  -0.000341088
2540     0.06304    0.753411     2.45971  -7.27674e-05
2550   0.0610205    0.752879     2.48364  -9.1248e-05
2560    0.064865    0.753891     2.91571  -7.31865e-05
2570   0.0624842    0.753264     2.70003  1.62158e-05
2580   0.0645407    0.753805     2.98744  -0.000187819
2590   0.0662406    0.754253     2.98697  -1.37471e-05
2600   0.0648156    0.753878     3.34783  0.000148774
2610   0.0632651     0.75347     3.49199  -7.70055e-06
2620   0.0649696    0.753918     2.65106  -1.96695e-05
2630   0.0636585    0.753573     2.77159  1.63179e-05
2640   0.0646432    0.753832     2.26695  0.000174207
2650   0.0601744    0.752656      3.2998  4.07886e-05
2660   0.0638275    0.753618     2.69914  9.00704e-05
2670    0.058373    0.752182     2.55537  0.000199244
2680   0.0598426    0.752569     2.72326  -8.0128e-05
2690   0.0599755    0.752604     2.96351  -6.21229e-05
2700    0.061085    0.752896     2.96309  8.44764e-05
2710    0.058286    0.752159     3.46754  0.000310853
2720    0.054868     0.75126     2.77176  -7.00951e-06
2730   0.0584262    0.752196     3.10739  -0.000135377
2740   0.0575755    0.751972      3.4678  1.75407e-05
2750   0.0580754    0.752104     2.81873  3.6112e-05
2760   0.0568533    0.751782     3.70739  0.000233318
2770    0.053409    0.750876     3.17905  0.000178284
2780   0.0532876    0.750844     3.34687  1.83446e-05
2790   0.0530421    0.750779     3.10608  -1.2547e-05
2800   0.0535386     0.75091     3.37061  0.00020434
2810   0.0489553    0.749704     3.17865  0.000365898
2820   0.0462206    0.748984      3.5151  3.15033e-05
2830   0.0483253    0.749538     3.22668  -0.000154775
2840   0.0493161    0.749799     3.03463  9.39658e-05
2850   0.0464459    0.749043     3.25066  0.000206322
2860   0.0451897    0.748713     3.44269  1.32604e-05
2870   0.0461807    0.748973     3.03425  -2.40974e-05
2880   0.0456716    0.748839     3.58681  0.000113613
2890   0.0439085    0.748375      3.4189  0.000164072
2900   0.0423902    0.747976      3.4903  0.000277685
2910   0.0383548    0.746914     3.46703  4.5375e-05
2920   0.0414827    0.747737      3.5865  1.85706e-06
2930   0.0383176    0.746904      3.4186  4.5624e-05
2940   0.0405702    0.747497     3.58646  -0.000212901
2950   0.0425757    0.748025     3.51412  -0.000226252
2960   0.0450952    0.748688     3.56177  0.000223104
2970   0.0381136     0.74685     3.51384  0.000204148
2980   0.0410123    0.747613     3.46559  0.000173607
2990   0.0346414    0.745937     3.25003  0.000103376
3000   0.0389448    0.747069     3.68191  2.49129e-06
3010   0.0345916    0.745923     3.41831  0.000295475
3020   0.0330353    0.745514     3.29794  -1.03049e-05
3030   0.0347977    0.745978     4.01822  -0.00024052
3040   0.0378457     0.74678     3.48918  0.000105041
3050   0.0326969    0.745425     4.06621  0.000175373
3060   0.0343382    0.745857       3.105  0.000157097
3070    0.029555    0.744598     3.80231  0.000221428
3080   0.0299096    0.744691     3.32157  -0.000151548
3090   0.0325859    0.745396     3.48934  8.71941e-05
3100   0.0281657    0.744232      3.8978  3.51608e-05
3110   0.0318827    0.745211     3.94544  -0.000113149
3120   0.0304287    0.744828     3.56154  -8.78962e-05
3130   0.0336406    0.745673     3.82558  4.21589e-05
3140   0.0295855    0.744606     3.84975  0.000152318
3150   0.0305943    0.744871     4.01764  2.27498e-05
3160   0.0291305    0.744486     3.84956  0.000316243
3170   0.0242694    0.743207     3.75359  -4.23628e-05
3180   0.0299778    0.744709     4.20969  -0.0004736
3190   0.0337414      0.7457     3.96895  9.76119e-06
3200   0.0297826    0.744658     3.96982  0.000114281
3210   0.0314558    0.745098     4.18533  -0.000193888
3220   0.0336603    0.745678     3.99323  -2.33388e-05
3230   0.0319226    0.745221     4.11332  -8.95608e-05
3240   0.0354516     0.74615     4.13695  -6.96307e-05
3250   0.0333152    0.745588     3.92092  1.56723e-05
3260   0.0351381    0.746067     3.51252  0.000148411
3270    0.030347    0.744806     4.40123  0.000121845
3280   0.0327012    0.745426     3.63311  -2.99858e-05
3290   0.0309467    0.744964     3.99281  2.28176e-05
3300   0.0322448    0.745306     3.39208  -0.000169983
3310   0.0343463    0.745859     3.96864  9.58014e-06
3320   0.0320532    0.745255     3.68071  0.000142874
3330   0.0314889    0.745107     4.08869  3.00072e-06
3340   0.0319932     0.74524     3.46423  -0.000164389
3350   0.0347767    0.745972     4.08815  0.000117021
3360   0.0296528    0.744624     4.18482  0.000103365
3370   0.0327094    0.745428     3.39194  7.74442e-05
3380   0.0281039    0.744216     3.82443  0.000211848
3390   0.0284724    0.744313     3.48803  4.40953e-05
3400    0.027222    0.743984     3.75237  7.11821e-05
3410   0.0270488    0.743938     3.31979  1.05426e-05
3420   0.0270112    0.743928     3.29609  0.000173335
3430   0.0235821    0.743026     3.80062  7.85201e-05
3440   0.0254408    0.743515     3.84837  3.15371e-05
3450   0.0229513     0.74286     3.99239  -9.13274e-05
3460   0.0272673    0.743996     3.96754  5.21919e-05
3470   0.0219075    0.742585     3.48803  0.000133622
3480   0.0245949    0.743293     3.48772  -2.21943e-06
3490   0.0219519    0.742597     2.91156  0.000113885
3500   0.0223172    0.742693     3.43948  -0.000208213
3510   0.0261161    0.743693     3.22328  8.70922e-05
3520   0.0205753    0.742235     3.60786  0.000121075
3530   0.0236946    0.743056     4.06393  -5.03348e-05
3540    0.021582      0.7425     3.75169  0.000197784
3550   0.0197389    0.742015     3.94436  -0.000140586
3560   0.0243938     0.74324     3.63116  -6.42859e-05
3570   0.0210247    0.742353     3.75132  5.28487e-05
3580   0.0233368    0.742961     3.91923  -0.000127247
3590   0.0235696    0.743023     3.91946  -0.000134743
3600   0.0260316    0.743671     4.01506  0.000109038
3610   0.0213888    0.742449     4.30343  0.000471981
3620    0.016592    0.741186     3.99164  7.47719e-05
3630   0.0198934    0.742055     4.25577  -0.000127564
3640   0.0191433    0.741858     4.20786  5.00511e-06
3650   0.0197933    0.742029     4.15941  -0.000142376
3660   0.0219908    0.742607     4.47132  6.84078e-05
3670   0.0184251    0.741669     4.68773  0.000272646
3680   0.0165379    0.741172     3.39091  -0.000199437
3690   0.0224139    0.742719     3.48643  -4.38915e-05
3700   0.0174157    0.741403     4.18325  9.67742e-05
3710   0.0204784    0.742209     4.66316  0.000140269
3720   0.0146103    0.740665     4.47226  6.18852e-05
3730   0.0192407    0.741883     4.06259  -0.000221813
3740   0.0190466    0.741832     3.51067  -0.000230079
3750   0.0238423    0.743094     4.08683  6.95175e-05
3760   0.0176562    0.741466     4.27901  0.000126137
3770   0.0213195    0.742431     3.84675  -3.74369e-05
3780    0.018405    0.741663     4.15887  -0.000109887
3790   0.0235173    0.743009     4.20657  8.44425e-05
3800   0.0167161    0.741219     4.30284  9.81557e-05
3810   0.0215542    0.742492     4.08613  2.01113e-05
3820   0.0163139    0.741113     4.51909  -2.27615e-06
3830   0.0215997    0.742504     4.30247  -1.58987e-05
3840   0.0166319    0.741197     3.89457  4.11398e-05
3850   0.0207769    0.742288     4.73498  -0.000110386
3860   0.0188396    0.741778     4.63878  0.000186754
3870   0.0170418    0.741305     4.87922  0.000165567
3880   0.0155283    0.740906     4.63892  -0.000103614
3890   0.0191141     0.74185     4.32671  -0.000278851
3900   0.0211053    0.742374     4.13407  -5.31658e-05
3910   0.0201774     0.74213     4.18221  6.36403e-05
3920   0.0198325    0.742039     4.78245  -2.04965e-06
3930   0.0202184    0.742141     4.63791  2.74265e-05
3940   0.0192839    0.741895     4.10959  0.000321848
3950   0.0137814    0.740447     4.51801  0.000278353
3960   0.0137169     0.74043     4.66234  3.59308e-05
3970   0.0130628    0.740258     4.87814  -3.07218e-05
3980   0.0143313    0.740591      4.3979  1.38831e-05
3990   0.0127852    0.740184      4.5178  1.37246e-05
4000   0.0140568    0.740519     4.46951  3.62705e-05
4010   0.0120597    0.739994     4.66171  0.000133011
4020   0.0113966    0.739819     4.78161  0.000118641
4030  0.00968693    0.739369     4.15746  0.000171229
4040  0.00797204    0.738918     4.90219  8.19625e-05
4050  0.00804768    0.738938     5.14199  3.74369e-05
4060   0.0072233    0.738721      4.2531  0.000157663
4070  0.00489442    0.738108     4.49396  0.000188203
4080  0.00345923     0.73773     4.58958  0.000128617
4090  0.00232208    0.737431     4.92579  0.000212131
4100  -0.000783388    0.736613     4.49333  -6.72527e-05
4110  0.00366714    0.737785     4.56503  0.000152895
4120  -0.0038413    0.735809     4.34914  0.000448484
4130  -0.00530254    0.735424     4.66124  7.79538e-05
4140  -0.00540037    0.735398     4.51719  0.000146883
4150  -0.00824019    0.734651     4.68529  0.000238731
4160   -0.010175    0.734142     4.73353  0.000209028
4170  -0.0124207    0.733551     4.46904  8.71941e-05
4180  -0.0119189    0.733683     4.27671  3.39719e-06
4190  -0.0124887    0.733533     4.27652  0.000103218
4200  -0.0139832     0.73314     4.68484  -2.73473e-05
4210  -0.0119417    0.733677     4.34858  8.07622e-05
4220  -0.0155985    0.732714     4.32481  0.000173256
4230  -0.0154069    0.732765     4.49244  -0.000119773
4240   -0.013203    0.733345     4.13193  0.000244166
4250  -0.0202902     0.73148     4.37263  0.000197614
4260  -0.0171553    0.732305     4.20383   2.814e-05
4270   -0.020853    0.731332     3.62785  0.000261345
4280  -0.0223822    0.730929     3.89178  0.000168828
4290  -0.0242296    0.730443     3.60368  5.2656e-06
4300  -0.0224875    0.730901     4.39605  -0.000119762
4310  -0.0218343    0.731073     4.25188  -8.89041e-05
4320  -0.0207094    0.731369       3.747  0.00022521
4330  -0.0263385    0.729888     4.01168  0.000611095
4340  -0.0329313    0.728153     3.93983  9.27089e-05
4350  -0.0281927      0.7294     3.69916  -0.000206129
4360  -0.0288087    0.729238     4.22746  0.000267471
4370  -0.0335421    0.727992     4.32368  0.000236398
4380  -0.0335367    0.727993     4.29963  7.87465e-05
4390   -0.035117    0.727578      3.5549  6.29496e-05
4400  -0.0347957    0.727662     3.91531  8.73415e-05
4410  -0.0368639    0.727118     4.27504  0.000263089
4420  -0.0400574    0.726277     3.93934  0.000127926
4430  -0.0394224    0.726444     3.81899  3.25676e-05
4440  -0.0407088    0.726106     3.79459  0.000305508
4450  -0.0455326    0.724836     3.74689  0.000418849
4460  -0.0490858    0.723901     4.13137  0.000331847
4470  -0.0521695     0.72309     4.25165  0.000107113
4480   -0.051228    0.723337     3.93875  2.6951e-05
4490  -0.0527085    0.722948     4.20261  0.000407593
4500  -0.0593799    0.721192     3.96311  0.00030313
4510  -0.0587711    0.721352     4.10685  9.35014e-05
4520  -0.0612499      0.7207     4.37101  8.53937e-05
4530   -0.060479    0.720903     4.32296  0.000159441
4540  -0.0644387    0.719861     4.75512  0.000265908
4550  -0.0657972    0.719503     4.80331  -2.77322e-05
4560  -0.0638841    0.720007      4.1306  -8.50201e-05
4570  -0.0640968    0.719951     4.03413  0.000193978
4580  -0.0677637    0.718986     4.39424  0.000260326
4590  -0.0693033     0.71858     4.15422  0.000104678
4600  -0.0698572    0.718435     3.57799  6.38101e-05
4610  -0.0705795    0.718244     4.08217  0.000163427
4620  -0.0731258    0.717574     4.13041  8.91987e-05
4630  -0.0723634    0.717775     4.25001  6.72638e-06
4640  -0.0732603    0.717539     3.96184  -1.00896e-05
4650  -0.0721617    0.717828     3.81763  0.000106853
4660  -0.0753973    0.716977      3.9858  0.000232219
4670   -0.076806    0.716606     4.22603  0.000107691
4680  -0.0775512     0.71641      3.6256  0.000234122
4690  -0.0814885    0.715373     3.79358  6.64711e-05
4700  -0.0788806     0.71606     3.43324  0.000134653
4710  -0.0841815    0.714665     3.40928  0.000303277
4720  -0.0849461    0.714463      3.1932  -4.17739e-05
4730  -0.0833461    0.714885     3.09677  5.98807e-05
4740  -0.0861437    0.714148     3.57738  0.000170006
4750  -0.0867462     0.71399     3.55291  0.000221949
4760  -0.0905827     0.71298     3.57689  2.65095e-05
4770  -0.0872764     0.71385     3.19245  1.02255e-05
4780  -0.0907872    0.712926     3.40863  0.000300423
4790  -0.0932848    0.712269     3.31264  -5.8239e-05
4800  -0.0896224    0.713233     2.83218  1.93637e-05
4810  -0.0936721    0.712167     3.26463  0.00038858
4820   -0.097394    0.711187     3.07269  0.000157459
4830  -0.0968213    0.711338     3.00042  4.62469e-05
4840   -0.098319    0.710944     2.90431  0.000115391
4850  -0.0991291    0.710731     3.12049  -0.000152861
4860  -0.0952618    0.711749     3.19229  -8.34912e-05
4870  -0.0974593     0.71117     2.80759  0.000298532
4880   -0.101232    0.710177     2.75982  0.000133894
4890   -0.100137    0.710465     2.95148  0.000169791
4900   -0.104628    0.709284     2.97583  0.000143667
4910    -0.10301    0.709709     3.31182  0.000232593
4920    -0.10928    0.708059       3.168  0.000223931
4930   -0.107489    0.708531     2.85558  -0.00017072
4940   -0.105866    0.708958     3.07173  -1.25244e-05
4950   -0.107239    0.708597     3.52806  0.000349592
4960   -0.112858    0.707118     2.99977  0.000350475
4970   -0.114248    0.706752     3.02377  -0.000260065
4980   -0.107656    0.708487      2.8308  -0.000162442
4990   -0.110999    0.707607     2.95084  -6.48182e-05
