Time   Number   
ps   
0          38          29
10          43          21
20          43          20
30          43          23
40          45          24
50          45          29
60          47          27
70          43          30
80          45          30
90          43          36
100          41          30
110          44          25
120          42          27
130          42          27
140          45          27
150          45          28
160          39          32
170          49          24
180          46          28
190          40          28
200          42          27
210          45          26
220          42          27
230          44          31
240          42          29
250          43          29
260          39          39
270          42          28
280          45          26
290          44          24
300          45          33
310          48          32
320          44          28
330          46          21
340          44          28
350          43          26
360          45          26
370          47          22
380          47          23
390          47          25
400          45          24
410          43          27
420          42          30
430          45          27
440          43          26
450          47          29
460          44          23
470          44          31
480          45          27
490          44          33
500          46          26
510          43          28
520          45          29
530          45          28
540          43          32
550          47          26
560          45          29
570          39          36
580          48          27
590          47          27
600          43          27
610          46          28
620          44          30
630          46          28
640          44          34
650          46          23
660          45          32
670          44          28
680          47          28
690          45          28
700          46          24
710          48          27
720          38          28
730          45          26
740          42          29
750          48          25
760          48          22
770          44          35
780          47          33
790          43          29
800          46          35
810          48          35
820          46          30
830          46          30
840          45          35
850          49          33
860          47          25
870          45          25
880          46          31
890          47          34
900          45          34
910          45          31
920          44          36
930          50          30
940          43          31
950          47          27
960          45          33
970          45          30
980          43          31
990          45          28
1000          45          31
1010          49          27
1020          44          28
1030          45          30
1040          44          25
1050          43          33
1060          44          30
1070          44          30
1080          45          33
1090          46          25
1100          40          28
1110          45          33
1120          42          33
1130          42          30
1140          39          32
1150          44          30
1160          44          25
1170          45          26
1180          45          23
1190          40          23
1200          46          30
1210          44          36
1220          46          28
1230          42          28
1240          41          27
1250          41          30
1260          44          31
1270          40          30
1280          46          26
1290          46          26
1300          46          25
1310          43          25
1320          45          24
1330          45          24
1340          44          24
1350          45          25
1360          46          28
1370          45          31
1380          43          28
1390          47          21
1400          39          25
1410          44          26
1420          45          24
1430          44          26
1440          46          24
1450          44          26
1460          43          28
1470          44          24
1480          43          32
1490          46          27
1500          46          31
1510          45          25
1520          45          27
1530          45          27
1540          45          23
1550          41          31
1560          43          30
1570          46          32
1580          40          27
1590          42          25
1600          42          30
1610          42          27
1620          39          34
1630          41          31
1640          42          28
1650          44          28
1660          40          33
1670          42          29
1680          44          30
1690          45          30
1700          46          24
1710          45          26
1720          44          37
1730          46          32
1740          46          32
1750          47          24
1760          45          29
1770          47          31
1780          45          31
1790          47          31
1800          43          26
1810          45          33
1820          42          32
1830          42          33
1840          45          32
1850          40          31
1860          40          27
1870          43          30
1880          43          28
1890          46          31
1900          46          27
1910          49          29
1920          45          32
1930          45          30
1940          47          30
1950          46          30
1960          44          24
1970          44          28
1980          45          28
1990          44          25
2000          48          28
2010          45          30
2020          43          31
2030          46          31
2040          44          30
2050          43          27
2060          43          32
2070          43          28
2080          49          31
2090          45          30
2100          49          29
2110          40          31
2120          41          33
2130          42          40
2140          48          29
2150          48          33
2160          44          31
2170          47          29
2180          44          36
2190          43          34
2200          45          28
2210          44          32
2220          46          31
2230          45          33
2240          42          30
2250          45          28
2260          44          29
2270          47          29
2280          43          31
2290          43          35
2300          41          34
2310          46          27
2320          45          24
2330          47          26
2340          39          31
2350          44          29
2360          41          33
2370          47          30
2380          42          35
2390          45          31
2400          46          26
2410          41          31
2420          41          28
2430          41          34
2440          44          32
2450          44          35
2460          44          32
2470          43          36
2480          41          41
2490          42          32
2500          49          32
2510          47          31
2520          45          30
2530          44          29
2540          37          38
2550          45          33
2560          43          36
2570          43          45
2580          48          33
2590          44          31
2600          47          37
2610          46          39
2620          46          33
2630          48          32
2640          46          31
2650          45          33
2660          44          27
2670          44          32
2680          44          40
2690          42          32
2700          43          31
2710          46          30
2720          44          29
2730          46          32
2740          45          35
2750          43          32
2760          46          32
2770          44          28
2780          47          29
2790          46          33
2800          40          31
2810          43          32
2820          43          28
2830          43          29
2840          42          30
2850          41          35
2860          43          28
2870          44          30
2880          44          29
2890          41          32
2900          46          28
2910          44          28
2920          44          33
2930          40          37
2940          43          34
2950          41          30
2960          41          30
2970          40          35
2980          44          28
2990          43          30
3000          44          35
3010          39          33
3020          44          30
3030          39          28
3040          42          28
3050          40          26
3060          40          25
3070          39          26
3080          40          25
3090          39          29
3100          43          28
3110          43          30
3120          43          30
3130          39          32
3140          41          26
3150          41          29
3160          40          30
3170          41          31
3180          43          29
3190          42          30
3200          40          35
3210          43          32
3220          42          28
3230          43          33
3240          40          26
3250          40          26
3260          44          29
3270          41          30
3280          38          30
3290          36          30
3300          35          29
3310          42          23
3320          40          31
3330          42          32
3340          42          30
3350          45          30
3360          41          30
3370          43          30
3380          44          31
3390          46          24
3400          40          34
3410          43          33
3420          45          28
3430          44          29
3440          43          23
3450          45          27
3460          44          29
3470          42          29
3480          42          22
3490          38          29
3500          46          28
3510          44          27
3520          46          29
3530          45          27
3540          41          29
3550          41          29
3560          45          29
3570          44          27
3580          41          30
3590          42          25
3600          41          28
3610          44          25
3620          43          26
3630          39          28
3640          39          25
3650          44          29
3660          42          34
3670          45          27
3680          42          28
3690          44          29
3700          41          29
3710          42          26
3720          41          26
3730          44          23
3740          42          23
3750          44          24
3760          40          24
3770          43          28
3780          42          26
3790          43          28
3800          41          25
3810          38          30
3820          38          27
3830          44          30
3840          39          27
3850          39          31
3860          44          33
3870          45          31
3880          43          33
3890          45          32
3900          43          34
3910          44          25
3920          44          29
3930          43          26
3940          45          28
3950          47          33
3960          44          36
3970          46          31
3980          46          29
3990          46          27
4000          43          27
4010          49          22
4020          46          29
4030          43          28
4040          46          24
4050          46          27
4060          46          27
4070          42          26
4080          42          27
4090          43          33
4100          45          25
4110          44          33
4120          44          26
4130          42          27
4140          43          24
4150          43          27
4160          42          25
4170          45          27
4180          45          26
4190          44          24
4200          42          29
4210          46          29
4220          43          28
4230          46          28
4240          40          31
4250          41          28
4260          47          27
4270          45          32
4280          43          29
4290          45          26
4300          45          25
4310          45          27
4320          44          28
4330          44          24
4340          43          23
4350          42          27
4360          43          25
4370          44          27
4380          46          24
4390          44          26
4400          47          26
4410          44          25
4420          42          25
4430          35          33
4440          42          25
4450          41          27
4460          46          29
4470          44          29
4480          46          26
4490          41          25
4500          43          28
4510          45          24
4520          40          29
4530          44          29
4540          41          28
4550          43          32
4560          45          23
4570          47          22
4580          39          29
4590          45          27
4600          44          26
4610          43          28
4620          40          27
4630          46          27
4640          44          26
4650          45          32
4660          44          24
4670          46          28
4680          45          29
4690          45          26
4700          43          28
4710          46          29
4720          44          29
4730          43          22
4740          38          29
4750          41          24
4760          44          30
4770          43          32
4780          44          26
4790          44          27
4800          42          26
4810          46          22
4820          44          29
4830          45          27
4840          46          22
4850          40          26
4860          44          24
4870          44          26
4880          44          25
4890          38          31
4900          45          25
4910          42          24
4920          43          25
4930          42          28
4940          44          23
4950          43          25
4960          44          25
4970          40          25
4980          40          26
4990          41          20
5000          39          32
5010          40          20
5020          43          29
5030          43          24
5040          39          29
5050          39          29
5060          42          27
5070          43          28
5080          43          21
5090          44          27
5100          42          28
5110          41          27
5120          43          22
5130          43          24
5140          42          28
5150          39          21
5160          41          18
5170          40          27
5180          41          24
5190          42          25
5200          42          25
5210          44          22
5220          40          29
5230          37          28
5240          43          24
5250          43          28
5260          39          29
5270          44          25
5280          43          25
5290          41          21
5300          40          29
5310          43          31
5320          44          31
5330          41          22
5340          42          25
5350          44          25
5360          44          25
5370          40          29
5380          39          24
5390          47          31
5400          42          26
5410          43          25
5420          38          26
5430          40          25
5440          41          22
5450          43          26
5460          43          21
5470          44          22
5480          41          27
5490          44          25
5500          39          28
5510          40          23
5520          45          26
5530          45          25
5540          44          20
5550          44          23
5560          42          23
5570          42          24
5580          43          30
5590          41          27
5600          42          23
5610          46          24
5620          42          22
5630          42          25
5640          45          24
5650          39          27
5660          45          24
5670          46          22
5680          41          23
5690          43          31
5700          43          21
5710          42          27
5720          42          25
5730          44          25
5740          41          26
5750          43          21
5760          37          25
5770          41          21
5780          43          28
5790          39          22
5800          42          24
5810          43          25
5820          42          23
5830          43          27
5840          36          23
5850          40          20
5860          40          25
5870          40          19
5880          43          20
5890          40          24
5900          41          23
5910          42          25
5920          40          23
5930          42          24
5940          43          22
5950          44          21
5960          41          25
5970          40          25
5980          43          22
5990          40          28
6000          42          22
6010          40          28
6020          40          24
6030          42          24
6040          41          23
6050          42          28
6060          41          22
6070          41          31
6080          43          24
6090          47          27
6100          44          25
6110          42          24
6120          44          22
6130          41          21
6140          43          24
6150          43          29
6160          40          27
6170          42          25
6180          40          26
6190          42          27
6200          44          23
6210          44          29
6220          43          23
6230          40          29
6240          45          27
6250          38          27
6260          41          25
6270          44          23
6280          43          27
6290          41          23
6300          42          29
6310          47          26
6320          45          23
6330          44          27
6340          43          27
6350          41          30
6360          46          26
6370          42          27
6380          41          22
6390          45          23
6400          38          26
6410          43          28
6420          42          26
6430          45          27
6440          45          26
6450          44          26
6460          45          32
6470          43          27
6480          40          21
6490          39          24
6500          40          24
6510          41          27
6520          45          29
6530          42          25
6540          43          27
6550          43          29
6560          44          23
6570          42          32
6580          43          25
6590          45          25
6600          41          25
6610          44          23
6620          42          22
6630          43          24
6640          44          34
6650          44          31
6660          41          28
6670          42          26
6680          49          27
6690          46          24
6700          43          28
6710          46          23
6720          41          25
6730          44          30
6740          46          28
6750          42          26
6760          46          26
6770          48          26
6780          46          28
6790          43          33
6800          43          26
6810          44          27
6820          45          23
6830          42          29
6840          43          25
6850          45          26
6860          42          26
6870          43          25
6880          42          30
6890          43          26
6900          41          23
6910          44          24
6920          46          26
6930          43          28
6940          44          27
6950          43          25
6960          41          32
6970          42          25
6980          41          26
6990          39          21
7000          46          27
7010          45          29
7020          43          28
7030          44          21
7040          42          26
7050          44          23
7060          42          28
7070          42          28
7080          46          28
7090          47          26
7100          44          30
7110          41          29
7120          46          27
7130          46          27
7140          46          23
7150          43          25
7160          44          28
7170          43          27
7180          45          26
7190          43          29
7200          39          22
7210          41          25
7220          40          26
7230          42          28
7240          43          22
7250          42          23
7260          43          25
7270          44          23
7280          42          27
7290          40          28
7300          42          25
7310          44          30
7320          40          32
7330          44          25
7340          44          23
7350          44          21
7360          41          25
7370          43          20
7380          41          26
7390          40          28
7400          43          24
7410          39          24
7420          44          22
7430          40          23
7440          40          20
7450          38          21
7460          36          22
7470          41          24
7480          40          22
7490          40          21
7500          39          18
7510          41          20
7520          41          23
7530          40          23
7540          40          21
7550          42          23
7560          41          19
7570          39          24
7580          36          24
7590          39          24
7600          38          24
7610          42          19
7620          35          30
7630          42          20
7640          40          22
7650          41          18
7660          38          23
7670          43          22
7680          39          26
7690          40          23
7700          39          19
7710          40          26
7720          41          25
7730          39          25
7740          41          21
7750          42          27
7760          43          24
7770          41          25
7780          39          26
7790          39          24
7800          41          25
7810          40          25
7820          39          22
7830          43          21
7840          39          29
7850          36          28
7860          41          21
7870          43          22
7880          41          25
7890          42          23
7900          37          24
7910          42          20
7920          39          23
7930          42          25
7940          43          24
7950          43          24
7960          41          27
7970          39          27
7980          43          23
7990          45          25
8000          43          22
8010          43          25
8020          43          23
8030          43          23
8040          44          27
8050          42          29
8060          40          27
8070          43          26
8080          42          28
8090          44          27
8100          43          28
8110          43          25
8120          42          27
8130          44          26
8140          43          27
8150          43          24
8160          45          24
8170          46          22
8180          45          24
8190          45          22
8200          43          27
8210          44          26
8220          46          31
8230          44          29
8240          46          23
8250          45          29
8260          46          26
8270          45          23
8280          43          24
8290          39          28
8300          43          25
8310          41          25
8320          43          22
8330          37          27
8340          39          26
8350          39          26
8360          43          24
8370          40          26
8380          44          27
8390          41          25
8400          42          26
8410          38          24
8420          48          23
8430          43          27
8440          39          28
8450          42          26
8460          43          26
8470          42          28
8480          43          22
8490          45          22
8500          43          25
8510          44          23
8520          42          27
8530          46          25
8540          42          28
8550          41          30
8560          41          29
8570          42          24
8580          44          29
8590          42          29
8600          38          28
8610          43          28
8620          42          24
8630          40          25
8640          42          21
8650          39          28
8660          39          25
8670          41          21
8680          39          27
8690          38          27
8700          45          25
8710          41          28
8720          37          28
8730          41          27
8740          42          24
8750          43          27
8760          41          25
8770          36          20
8780          41          31
8790          41          26
8800          44          28
8810          39          25
8820          41          27
8830          42          24
8840          42          26
8850          42          23
8860          43          22
8870          42          26
8880          44          24
8890          39          23
8900          40          23
8910          40          22
8920          42          24
8930          35          20
8940          41          26
8950          40          27
8960          42          26
8970          40          26
8980          38          23
8990          39          26
9000          35          28
9010          41          25
9020          39          26
9030          39          25
9040          37          29
9050          42          23
9060          39          31
9070          40          24
9080          38          23
9090          39          29
9100          38          23
9110          38          26
9120          39          19
9130          37          26
9140          41          22
9150          39          25
9160          36          28
9170          39          22
9180          43          27
9190          40          24
9200          40          23
9210          40          25
9220          39          27
9230          40          21
9240          39          25
9250          40          24
9260          34          25
9270          38          21
9280          42          28
9290          41          28
9300          43          24
9310          41          23
9320          42          26
9330          40          24
9340          43          24
9350          43          24
9360          41          21
9370          39          22
9380          41          24
9390          41          24
9400          41          24
9410          42          29
9420          41          27
9430          40          28
9440          40          24
9450          41          25
9460          43          26
9470          43          26
9480          40          23
9490          39          25
9500          41          27
9510          43          29
9520          42          24
9530          38          21
9540          40          25
9550          42          24
9560          37          25
9570          37          19
9580          40          25
9590          40          27
9600          38          26
9610          41          24
9620          42          23
9630          40          24
9640          39          27
9650          41          26
9660          44          27
9670          39          26
9680          42          25
9690          40          25
9700          41          26
9710          39          27
9720          42          27
9730          44          23
9740          41          28
9750          42          31
9760          44          22
9770          43          30
9780          40          25
9790          42          27
9800          38          25
9810          39          25
9820          39          24
9830          40          24
9840          37          24
9850          44          25
9860          40          28
9870          40          26
9880          37          28
9890          37          30
9900          40          24
9910          35          29
9920          35          28
9930          37          28
9940          36          32
9950          41          24
9960          41          20
9970          40          27
9980          41          26
9990          39          27
10000          40          24
