Time   C(t)   
ps   
0           1           1  3.04322e-10    0.023533
10    0.770376    0.780461   -0.412417     0.01395
20       0.721    0.733253    -1.75386    0.004367
30    0.683036    0.696956  -0.0403231  0.00341509
40    0.652698    0.667951   -0.942789  0.00289933
50     0.62505    0.641516     1.58644  0.00263873
60    0.599924    0.617494    0.308917  0.00231483
70    0.578753    0.597253   -0.362592  0.00204713
80    0.558981    0.578349    -1.45205   0.0019049
90    0.540655    0.560828   -0.616178  0.00172954
100     0.52439    0.545278   -0.304452  0.00155809
110    0.509494    0.531035   -0.934361  0.00145645
120    0.495262    0.517428   -0.935096  0.00141715
130    0.481151    0.503937   -0.643098  0.00139838
140    0.467294    0.490689   -0.644058  0.00125153
150     0.45612    0.480005   -0.979782  0.00108803
160    0.445533    0.469884   -0.897297  0.00114249
170     0.43327    0.458159    -1.62942  0.00115346
180    0.422464    0.447828    -1.48371  0.00102838
190    0.412703    0.438495   -0.333946  0.000988004
200    0.402704    0.428935   -0.962915  0.000939848
210    0.393906    0.420523    -1.15205  0.000905839
220    0.384587    0.411614   -0.127518  0.000827719
230    0.377351    0.404696    -1.04912  0.000768241
240    0.369223    0.396924   -0.631012  0.000769824
250    0.361955    0.389976    0.226462  0.000635326
260    0.356516    0.384776    0.141831  0.000690565
270    0.348144    0.376771   -0.214151  0.000676477
280    0.342987     0.37184    -1.19892  0.000594364
290    0.336256    0.365406   -0.362173  0.000672635
300    0.329534    0.358978   -0.174717   0.0006024
310    0.324208    0.353887    0.786972  0.000586027
320    0.317813    0.347773    0.514395  0.00062028
330    0.311803    0.342026   -0.552531  0.000608346
340    0.305646     0.33614   -0.637019  0.000614007
350    0.299523    0.330285   -0.741868  0.000537686
360    0.294893    0.325859    -1.14047  0.000456795
370    0.290387     0.32155   -0.701371  0.000474374
380    0.285405    0.316788    -1.41289  0.000477603
390    0.280835    0.312418   -0.764987  0.000451921
400    0.276367    0.308146   -0.827847  0.000433913
410    0.272156    0.304121   -0.744483    0.000427
420    0.267827    0.299981   -0.305116  0.000450215
430    0.263152    0.295512    0.175463  0.000435515
440    0.259116    0.291653    0.342865  0.00037377
450    0.255677    0.288365    0.614503  0.000349993
460    0.252117    0.284961  -0.0342751  0.000320456
470    0.249268    0.282237    0.530526  0.000220113
480    0.247714    0.280752    0.654959  0.000276813
490    0.243731    0.276944   -0.871899  0.000328998
500    0.241134    0.274461   -0.558457  0.000264468
510    0.238442    0.271887   -0.768358  0.000272954
520    0.235675    0.269242    -1.91881  0.00034121
530    0.231618    0.265362    -1.14531  0.000366703
540    0.228341     0.26223   -0.831177  0.000322291
550    0.225172      0.2592    -1.77304  0.000294645
560    0.222448    0.256596   -0.539015  0.000310053
570    0.218971    0.253271   -0.518266  0.000288008
580    0.216688    0.251089    0.401782  0.000234171
590    0.214287    0.248793   -0.246955  0.000264176
600    0.211405    0.246037   -0.310061  0.000289777
610    0.208492    0.243252    0.568877  0.000284711
620     0.20571    0.240593    0.149463  0.000247699
630    0.203538    0.238516    -0.47828  0.000252828
640    0.200654    0.235758   -0.478689  0.00024759
650    0.198586    0.233781   -0.436741  0.000190977
660    0.196834    0.232107   -0.416278  0.000173034
670    0.195125    0.230473   0.0647093  0.000182619
680    0.193182    0.228615   -0.144722  0.000197948
690    0.191167    0.226688   -0.856606  0.000253455
700    0.188113    0.223768   -0.312165  0.000247076
710    0.186225    0.221963    -1.06553  0.000192414
720    0.184265    0.220089   -0.333016  0.000195132
730    0.182322    0.218232   -0.647542  0.000182874
740    0.180607    0.216592    -0.64746  0.000138187
750    0.179559     0.21559   -0.773303  0.000137359
760     0.17786    0.213965   -0.333895  0.000202497
770    0.175509    0.211717  -0.0620121  0.00017739
780    0.174312    0.210573   -0.522516  0.000192899
790    0.171651    0.208029    0.168128  0.000239688
800    0.169518     0.20599    0.397818  0.000169326
810    0.168264    0.204791   -0.251022  0.000233825
820    0.164842    0.201519    0.460637  0.000263312
830    0.162998    0.199756   -0.041774  0.000196284
840    0.160916    0.197766    0.334427  0.000199036
850    0.159017     0.19595  -0.0840689  0.00018314
860    0.157253    0.194264    0.103326  0.000192917
870    0.155159    0.192261     0.35444  0.000245988
880    0.152334     0.18956    0.479854  0.000226595
890    0.150627    0.187928    0.166003  0.000180192
900     0.14873    0.186115    0.144968  0.00018291
910    0.146969    0.184431   -0.273773  0.000159798
920    0.145534    0.183059   0.0396491  0.000176656
930    0.143436    0.181053   -0.148584  0.000171121
940    0.142111    0.179787  -0.0654246  0.000171523
950    0.140005    0.177773    0.185608  0.000232135
960    0.137469    0.175348   -0.483838    0.000222
970    0.135565    0.173528     -1.0487  0.00017514
980    0.133966    0.171999    -1.27874  0.00010793
990    0.133407    0.171464    -1.38355  0.000110614
1000    0.131754    0.169884   -0.693433  0.000174972
1010    0.129907    0.168119    -1.23757  0.000192022
1020    0.127913    0.166212   -0.672418  0.000111435
1030    0.127678    0.165988   -0.609906  0.000101036
1040    0.125892     0.16428   -0.840249  0.000206266
1050    0.123553    0.162044   -0.714795  0.000238956
1060    0.121113    0.159711   -0.902926  0.000137772
1070    0.120798    0.159409  -0.0247842  0.000132213
1080    0.118469    0.157183   -0.212936  0.00020315
1090    0.116735    0.155525   -0.338595  0.000153222
1100    0.115405    0.154253    0.665635  0.000117524
1110    0.114384    0.153277   -0.422694  0.00017315
1120    0.111942    0.150942    0.790783  0.000193943
1130    0.110505    0.149569    0.937048  0.000116046
1140    0.109621    0.148723     1.23007  0.000124794
1150     0.10801    0.147183    0.874249  0.000156477
1160    0.106491    0.145731     1.10425  0.000118114
1170    0.105647    0.144924    0.685771  8.56929e-05
1180    0.104777    0.144092    0.727249  0.000102859
1190     0.10359    0.142957     1.04114  0.000109154
1200    0.102594    0.142005    0.789761  0.000126431
1210    0.101061     0.14054    0.747834  9.62667e-05
1220    0.100669    0.140164    0.747425  8.80238e-05
1230    0.099301    0.138857    0.684688  0.000116232
1240   0.0983443    0.137942    0.559315  0.000110418
1250   0.0970926    0.136745    0.684565  0.000108198
1260   0.0961804    0.135873     1.54233  0.000132944
1270   0.0944337    0.134203    0.935699  0.00011113
1280   0.0939578    0.133748    0.851436  7.83309e-05
1290   0.0928671    0.132705    0.767991  0.000130078
1300   0.0913562    0.131261    0.872717  0.000136513
1310   0.0901369    0.130095     1.33277  9.25265e-05
1320   0.0895057    0.129491     1.52107  5.94843e-05
1330   0.0889472    0.128957     1.45796  7.56595e-05
1340   0.0879925    0.128045    0.914174  7.95312e-05
1350   0.0873566    0.127437      1.1864  5.99418e-05
1360   0.0867936    0.126898     1.12354  6.25607e-05
1370   0.0861053     0.12624     1.14437  8.25282e-05
1380   0.0851431     0.12532     1.01859  0.000116211
1390   0.0837811    0.124018     1.08131  0.000128893
1400   0.0825652    0.122856    0.977013  0.000108049
1410   0.0816201    0.121952     0.78827  6.34942e-05
1420   0.0812953    0.121642     1.10192  7.73896e-05
1430   0.0800724    0.120472      0.8091  7.99932e-05
1440   0.0796955    0.120112    0.829461  0.000122727
1450   0.0776178    0.118126    0.746159  0.000114171
1460   0.0774121    0.117929  -0.0073862  3.56305e-05
1470   0.0769052    0.117444   0.0132198  6.32808e-05
1480   0.0761464    0.116719    0.620173  0.000112385
1490   0.0746575    0.115295    0.180786  0.000171695
1500   0.0727125    0.113436   0.0969717  0.00016703
1510   0.0713169    0.112101    0.306342  0.000120836
1520   0.0702958    0.111125     0.26421  7.69861e-05
1530   0.0697772    0.110629    0.138368  8.47742e-05
1540   0.0686003    0.109504   -0.279984  9.75888e-05
1550   0.0678254    0.108763    0.766009  9.53082e-05
1560   0.0666942    0.107682   -0.468258  0.000119602
1570   0.0654334    0.106476   -0.196396  7.80001e-05
1580   0.0651342     0.10619   -0.259644  8.33176e-05
1590    0.063767    0.104883  -0.0710638  3.63909e-05
1600   0.0644064    0.105494    -0.11293  2.51349e-05
1610   0.0632643    0.104402    0.744769  0.000101591
1620   0.0623745    0.103552     1.03783  0.000122279
1630   0.0608187    0.102064    0.661283  0.000100801
1640   0.0603585    0.101624    0.619131  5.37587e-05
1650   0.0597435    0.101036    0.744831  5.13177e-05
1660   0.0593322    0.100643     0.61909  6.94098e-05
1670   0.0583554   0.0997091    0.221385  5.79897e-05
1680   0.0581724   0.0995342    0.451504  3.11654e-05
1690    0.057732   0.0991132    0.723795  4.15228e-05
1700   0.0573419   0.0987402     0.40972  5.19497e-05
1710   0.0566931   0.0981198     1.05819  0.000115284
1720   0.0550362   0.0965357    0.116638  7.54479e-05
1730   0.0551841   0.0966771     0.57655  3.82259e-05
1740   0.0542717   0.0958048    0.702045  8.48865e-05
1750   0.0534864   0.0950539     1.01579  6.56545e-05
1760   0.0529586   0.0945494     1.05739  9.82782e-05
1770   0.0515208   0.0931747     1.26668  8.02586e-05
1780   0.0513534   0.0930147    0.764456  3.10773e-05
1790   0.0508993   0.0925804     1.28755  5.85046e-05
1800   0.0501834    0.091896     1.07812  7.29805e-05
1810   0.0494396   0.0911849    0.639185  6.00934e-05
1820   0.0489815   0.0907469     1.32938  1.97181e-05
1830   0.0490453   0.0908079     1.26674  2.24216e-05
1840   0.0485331   0.0903182    0.973478  9.7169e-05
1850   0.0471019   0.0889499     1.09979  8.29086e-05
1860   0.0468749   0.0887328     1.12015  3.01395e-06
1870   0.0470416   0.0888922     1.60106  3.04617e-06
1880    0.046814   0.0886746     1.35003  2.5424e-05
1890   0.0465331   0.0884061     1.47552  3.06051e-06
1900   0.0467528    0.088616     1.07759  5.72538e-05
1910   0.0453881   0.0873113     1.24522  8.90318e-05
1920   0.0449721   0.0869136     1.11966  5.62156e-05
1930   0.0442638   0.0862364    0.826723  1.52372e-05
1940   0.0446674   0.0866222    0.972804  8.70489e-06
1950   0.0440897   0.0860699     0.44993  6.71465e-05
1960   0.0433244   0.0853383    0.533519  7.26204e-05
1970   0.0426372   0.0846813      0.4707  4.08309e-05
1980   0.0425078   0.0845575    0.700758  6.36525e-05
1990   0.0413642   0.0834641     1.07747  8.11065e-05
2000   0.0408857   0.0830067    0.889032  1.84955e-05
2010   0.0409943   0.0831105     1.34905  5.47379e-05
2020   0.0397909     0.08196     1.05625  5.21041e-05
2030   0.0399522   0.0821142    0.951728  2.95011e-05
2040   0.0392009   0.0813959     1.09818  8.01384e-06
2050   0.0397919   0.0819609     1.30728  -2.41775e-05
2060   0.0396845   0.0818582    0.763311  1.61413e-05
2070   0.0394691   0.0816523     1.22365  2.02153e-05
2080   0.0392802   0.0814716    0.930754  2.1621e-05
2090   0.0390367   0.0812388     1.39122  9.50731e-06
2100     0.03909   0.0812898     1.24434  2.98602e-05
2110   0.0384395   0.0806679    0.512157  7.32804e-05
2120   0.0376244   0.0798886    0.282303  5.57639e-06
2130   0.0383279   0.0805612    0.323883  -4.19004e-05
2140   0.0384624   0.0806898    0.595909  -1.89021e-05
2150    0.038706   0.0809227    0.533008  1.51293e-05
2160   0.0381598   0.0804005    0.407329  3.28572e-05
2170   0.0380488   0.0802944    0.177087  -3.91938e-06
2180   0.0382382   0.0804754   0.0308221  -5.2765e-06
2190   0.0381544   0.0803953      0.2609  1.66062e-05
2200   0.0379061   0.0801579    0.595725  6.05322e-05
2210   0.0369437   0.0792378    0.386294  6.33918e-05
2220   0.0366383   0.0789457    0.532783  3.47158e-05
2230   0.0362494    0.078574     0.93008  5.82116e-05
2240    0.035474   0.0778326     1.03511  2.80019e-05
2250   0.0356894   0.0780385    0.867342  1.01862e-05
2260   0.0352703   0.0776379    0.971967  2.26166e-05
2270    0.035237   0.0776061    0.888398  8.86284e-06
2280    0.035093   0.0774684     1.05543  4.4908e-05
2290   0.0343389   0.0767474    0.700022  3.11084e-05
2300   0.0344709   0.0768735    0.490713  4.79236e-05
2310   0.0333804    0.075831    0.909127  6.74441e-05
2320    0.033122   0.0755839    0.344019  5.51349e-05
2330   0.0322777   0.0747767     1.09722  3.29208e-05
2340   0.0324636   0.0749544    0.971538  6.10131e-05
2350   0.0310575     0.07361     1.03475  8.06482e-05
2360   0.0308506   0.0734123    0.720731  2.9124e-05
2370    0.030475   0.0730531     1.01379  3.62039e-05
2380   0.0301265     0.07272    0.741623  3.91005e-05
2390    0.029693   0.0723055     1.05566  1.10774e-05
2400    0.029905   0.0725082    0.176903  4.21295e-05
2410   0.0288504   0.0714999      1.0347  7.59897e-05
2420   0.0283852   0.0710551      0.8672   4.658e-05
2430   0.0279188   0.0706092     0.99243  6.22548e-05
2440   0.0271401   0.0698647     0.90882  8.07987e-05
2450   0.0263028   0.0690642    0.950523  6.11662e-05
2460   0.0259168   0.0686951    0.532048  1.16942e-05
2470   0.0260689   0.0688406    0.720301  -9.55593e-06
2480   0.0261079   0.0688778    0.908371  3.73608e-05
2490   0.0253217   0.0681262    0.741234  3.45619e-05
2500   0.0254166   0.0682169     1.36879  1.18882e-05
2510   0.0250839   0.0678988    0.908637  2.76041e-05
2520   0.0248646   0.0676891     1.38975  5.91533e-05
2530   0.0239009   0.0667677     1.70372  5.49639e-05
2540   0.0237653   0.0666381     1.28523  7.83801e-06
2550   0.0237441   0.0666179     1.07583  -7.93273e-06
2560   0.0239239   0.0667898    0.887397  -3.62406e-06
2570   0.0238166   0.0666872    0.740928   2.803e-05
2580   0.0233633   0.0662538    0.133954  3.52882e-05
2590   0.0231108   0.0660124    0.405858  6.51628e-06
2600    0.023233   0.0661292   -0.263976  4.12653e-05
2610   0.0222855   0.0652233    0.510441  1.09018e-05
2620    0.023015   0.0659208     0.74056  -4.90556e-06
2630   0.0223836   0.0653171    0.803216  -2.11224e-06
2640   0.0230572   0.0659611     1.01228  -2.52877e-05
2650   0.0228894   0.0658007     1.15875  8.07336e-06
2660   0.0228958   0.0658068    0.489181  -1.81334e-05
2670   0.0232521   0.0661474    0.321758  -6.48675e-06
2680   0.0230255   0.0659308    0.279729  3.14615e-05
2690   0.0226228   0.0655458    0.258939  4.91053e-05
2700   0.0220434   0.0649918   -0.264037  5.21589e-05
2710   0.0215796   0.0645485   0.0287583  2.8826e-05
2720   0.0214669   0.0644406   -0.515396  1.71714e-05
2730   0.0212362   0.0642201   -0.264466  1.72096e-05
2740   0.0211227   0.0641116   -0.117874  -1.8944e-06
2750   0.0212741   0.0642563   -0.452658  -3.43523e-05
2760   0.0218097   0.0647684   -0.139236  1.13927e-05
2770   0.0210463   0.0640385  -0.0972681  6.31355e-05
2780    0.020547   0.0635612    0.467758  6.92594e-05
2790   0.0196611   0.0627141    0.195814  1.89641e-05
2800   0.0201677   0.0631985  -0.0341015  -1.80423e-05
2810   0.0200219   0.0630591   0.0494462  3.39506e-05
2820   0.0194887   0.0625494   0.0910056  2.9549e-05
2830   0.0194309   0.0624941   -0.264793  -1.6747e-06
2840   0.0195222   0.0625814    0.467574  2.6728e-05
2850   0.0188964    0.061983   0.0491195  3.57316e-05
2860   0.0188076   0.0618981   0.0911487  1.4885e-05
2870   0.0185987   0.0616984    0.132872  4.94351e-05
2880   0.0178189   0.0609528   -0.202056  2.24854e-05
2890    0.018149   0.0612684    0.320635  6.02514e-05
2900   0.0166139   0.0598007    0.300069  0.000107009
2910   0.0160088   0.0592223  -0.0137815  6.96463e-05
2920   0.0152209    0.058469    0.571973  7.2854e-05
2930   0.0145517   0.0578292    0.111693  5.64194e-05
2940   0.0140925   0.0573902    0.550897  7.93297e-05
2950   0.0129651   0.0563122   0.0906993  2.18292e-05
2960    0.013656   0.0569727   0.0904949  -1.14198e-05
2970   0.0131935   0.0565306    0.488057  1.58664e-05
2980   0.0133386   0.0566694    0.676025  6.80937e-06
2990   0.0130573   0.0564004    0.236739  6.63314e-05
3000    0.012012    0.055401    0.174206  6.03507e-05
3010   0.0118503   0.0552464     0.40404  6.82429e-05
3020   0.0106471   0.0540961    0.383127  0.00010669
3030  0.00971651   0.0532063  -0.0772547  4.71383e-05
3040  0.00970437   0.0531947    0.131891  2.27404e-05
3050   0.0092617   0.0527715     0.36201  5.66504e-05
3060  0.00857136   0.0521115   -0.203138  6.45062e-05
3070  0.00797158    0.051538    -0.20322  3.53589e-05
3080  0.00786418   0.0514353   -0.286952  6.48791e-05
3090    0.006674   0.0502974    -0.11957  0.000114544
3100   0.0055733   0.0492451   -0.161334  7.45611e-05
3110  0.00518277   0.0488717   -0.475369  4.84269e-05
3120  0.00460476    0.048319   -0.433319  3.92205e-05
3130  0.00439837   0.0481217    -0.49624  -1.13677e-06
3140   0.0046275   0.0483408   -0.224275  9.81193e-06
3150  0.00420213   0.0479341   -0.287156  4.57236e-05
3160  0.00371303   0.0474665   -0.286993  3.80295e-05
3170  0.00344154   0.0472069   -0.412836  2.87563e-05
3180   0.0031379   0.0469166   -0.412733  4.13913e-05
3190  0.00261371   0.0464154    -0.64273  4.62108e-05
3200  0.00221369    0.046033   -0.705692  7.46838e-05
3210  0.00112003   0.0449874   -0.517153  8.74593e-05
3220  0.000464498   0.0443606   -0.684596  5.61829e-05
3230  -3.62366e-06    0.043913    -1.12402  4.05563e-05
3240  -0.000346628   0.0435851   -0.538372  5.01834e-05
3250  -0.00100729   0.0429535   -0.559386  2.33603e-05
3260  -0.000813835   0.0431384   -0.601273  1.71411e-05
3270  -0.00135011   0.0426257   -0.601579  2.34969e-05
3280  -0.00128377   0.0426891   -0.517704  3.95368e-05
3290  -0.00214085   0.0418697   -0.162028  7.62671e-05
3300  -0.00280911   0.0412308   -0.413162  3.65804e-05
3310  -0.00287246   0.0411702   -0.789955  -6.45653e-06
3320  -0.00267998   0.0413542   -0.873646  1.59708e-05
3330  -0.00319187   0.0408648   -0.664296  -3.28565e-06
3340  -0.00261427   0.0414171   -0.685475  1.12487e-05
3350  -0.00341685   0.0406497    -0.64367  1.92251e-05
3360  -0.00299877   0.0410494   -0.371889  -1.93057e-05
3370  -0.00303073   0.0410189    -0.45556  3.87094e-05
3380  -0.00377296   0.0403092   -0.643915  6.30201e-05
3390  -0.00429114   0.0398138   -0.580953  -1.28628e-05
3400  -0.0035157   0.0405552   -0.811399  5.03222e-06
3410  -0.00439178   0.0397176   -0.267143  3.57735e-05
3420  -0.00423117   0.0398712   -0.539414  2.1326e-05
3430  -0.0048183   0.0393098   -0.329982  6.3686e-05
3440  -0.00550489   0.0386534   -0.518052   3.777e-05
3450  -0.0055737   0.0385876   -0.350772  -1.7618e-05
3460  -0.00515253   0.0389903   -0.350977  -5.52731e-05
3470  -0.00446824   0.0396445   -0.539189  -1.93673e-05
3480  -0.00476519   0.0393606    -0.39272  6.7624e-06
3490  -0.00460349   0.0395152   -0.204283  -1.40094e-06
3500  -0.00473717   0.0393874   -0.267163  1.50353e-05
3510  -0.00490419   0.0392277    -0.58081  8.48304e-06
3520  -0.00490683   0.0392252   -0.183411  1.84319e-05
3530  -0.00527283   0.0388752  -0.0998018  -1.46201e-05
3540  -0.00461443   0.0395047   -0.288178  -3.77813e-05
3550  -0.00451721   0.0395977   -0.057752  -3.09939e-06
3560  -0.00455244    0.039564   0.0885538  -1.80729e-05
3570  -0.00415575   0.0399433   -0.225154  -1.80953e-05
3580  -0.00419053     0.03991   -0.350506  1.68196e-05
3590  -0.00449214   0.0396217   -0.434279  -4.85277e-06
3600  -0.00409348   0.0400028   -0.455376  -3.15689e-05
3610  -0.00386076   0.0402253   -0.622492  -4.34046e-05
3620  -0.00322539   0.0408328   -0.643486  -2.50574e-05
3630  -0.00335961   0.0407044   -0.643629  -1.67585e-06
3640  -0.00319187   0.0408648   -0.643813  -3.33786e-06
3650  -0.00329286   0.0407683     -1.0203  1.51703e-05
3660  -0.00349528   0.0405747    -1.20841  1.68968e-05
3670  -0.00363079   0.0404452   -0.915533  2.20274e-05
3680  -0.00393582   0.0401535   -0.685209  8.53625e-06
3690  -0.00380152   0.0402819   -0.915553  5.20598e-06
3700  -0.00403994    0.040054   -0.810704  -1.60142e-06
