Time   C(t)   
ps   
0           1           1  2.68046e-10   0.0250692
10    0.749223    0.838553    0.922425   0.0140076
20    0.719849    0.819641     1.06401  0.00294591
30    0.690305    0.800622     1.42592   0.0025717
40    0.668415    0.786529   -0.022149  0.00211952
50    0.647915    0.773331    -1.32411  0.00147794
60    0.638856    0.767499    -1.97746  0.00143178
70    0.619279    0.754896   -0.168609  0.00150607
80    0.608734    0.748107     1.20609   0.0013379
90    0.592521    0.737669   0.0491737  0.00147888
100    0.579157    0.729065     3.59372  0.00127675
110    0.566986     0.72123     1.20503  0.00110721
120    0.557013    0.714809     2.07334  0.00104284
130    0.546129    0.707803    0.626395  0.000872415
140    0.539564    0.703576     1.27642  0.000946838
150    0.527193    0.695611    0.191183   0.0013332
160      0.5129     0.68641    0.191748  0.000917178
170    0.508849    0.683802   -0.748657  0.000712824
180    0.498644    0.677232  -0.0250458  0.000915328
190    0.490543    0.672016  -0.0982051  0.000782917
200    0.482986    0.667151    -1.25611  0.000644413
210    0.477654    0.663719    0.479723  0.000623411
220    0.470517    0.659124    0.118165  0.000720081
230    0.463253    0.654447    0.190335  0.000732802
240    0.455861    0.649689   0.0458529  0.000655495
250    0.450143    0.646007    0.553377  0.000516082
260     0.44554    0.643044    0.624205  0.000438257
270    0.441378    0.640365    0.767698  0.000755318
280    0.430433    0.633319    0.768193  0.000897796
290    0.423422    0.628805    0.840928  0.000554791
300    0.419337    0.626175   -0.100607  0.000471123
310    0.413999    0.622739   0.0442987  0.000472036
320    0.409897    0.620097     1.34556  0.000586575
330    0.402268    0.615186     2.06924  0.000559188
340    0.398713    0.612897    0.983927  0.000577632
350    0.390715    0.607749     1.78006  0.000538765
360    0.387938     0.60596    0.332415  0.000363517
370    0.383445    0.603068    0.621238  0.000489658
380    0.378145    0.599656   -0.462802  0.000444935
390    0.374546    0.597339    0.620955   0.0004917
400    0.368311    0.593325     -1.4042  0.000452551
410    0.365495    0.591512   -0.103292  0.000281826
420    0.362674    0.589696    0.547867  0.000293894
430    0.359617    0.587728   0.0417554  0.000397797
440    0.354718    0.584574   0.0416136  0.00036404
450    0.352336    0.583041    0.475625  0.000255671
460    0.349605    0.581282     1.05377  0.000411661
470    0.344103     0.57774     2.13823  0.000331691
480    0.342971    0.577011    0.473718  0.000228739
490    0.339528    0.574795    0.184612  0.000367729
500    0.335616    0.572276    0.401971  0.000426307
510    0.331002    0.569306   -0.176735  0.000340348
520    0.328809    0.567894   -0.610958  0.00027746
530    0.325453    0.565733     1.34181  0.00027217
540    0.323366     0.56439    0.546171  0.000220558
550    0.321042    0.562894    0.473718  0.000110573
560    0.321154    0.562966   -0.106471  0.000174938
570    0.317543    0.560641    0.183976  0.00050132
580    0.311128    0.556511   -0.683693   8.239e-05
590    0.315895     0.55958   -0.612088  -1.60679e-05
600    0.311449    0.556718     1.41405  0.000263911
610    0.310617    0.556182    0.545888  6.57484e-05
620    0.310134    0.555871    0.182776  0.000241588
630    0.305785    0.553072   -0.612936  0.000499852
640    0.300137    0.549435     -1.6974  0.00033066
650    0.299172    0.548814    -2.56613  0.000161248
660    0.296912    0.547359     1.12339  7.32988e-05
670    0.297706     0.54787   0.0377282  0.000132492
680    0.294263    0.545653     1.05108  0.000309378
690    0.291519    0.543887    -1.04702  0.000304189
700    0.288179    0.541737   -0.902465  0.000287071
710    0.285777    0.540191   0.0377284  0.000317304
720    0.281833    0.537651   -0.107036  0.000329761
730    0.279182    0.535945   -0.541119  0.000312762
740    0.275577    0.533624    0.472729  0.000105764
750    0.277067    0.534583     1.12276  2.90588e-05
760    0.274996     0.53325   0.0375163  0.000379682
770    0.269473    0.529694    0.255299  0.000302948
780    0.268937    0.529349      1.5567  4.17367e-05
790    0.268638    0.529157    0.109192  0.000202879
800     0.26488    0.526737     0.25431  0.000358379
810    0.261471    0.524542    0.326763  0.000197783
820    0.260924     0.52419   -0.614561  0.000228275
830    0.256905    0.521603    0.326339  0.000198658
840    0.256951    0.521632   -0.252579  6.73786e-05
850    0.255558    0.520736    -1.77254  0.000133468
860    0.254282    0.519914    -1.12159  0.000290032
870    0.249757    0.517001    0.543627  0.000116003
880    0.251961     0.51842     1.40911  2.20835e-06
890    0.249713    0.516973     1.98887  -1.61275e-05
900    0.252284    0.518628    0.902854  3.23817e-05
910    0.249065    0.516556    0.396814  0.000201361
920    0.248257    0.516035    0.467924  3.85791e-05
930    0.248294    0.516059     1.55394  0.000238575
940    0.243485    0.512963      2.4214  0.00042073
950    0.239879    0.510642     1.40911  0.000142501
960    0.240635    0.511129      1.1926  2.76133e-05
970    0.239327    0.510286     1.04783  0.000149251
980     0.23765    0.509207     0.75809  0.000119086
990    0.236945    0.508753   -0.761233  9.50091e-05
1000     0.23575    0.507984   -0.182033  0.000253897
1010    0.231867    0.505484    -2.20697  0.000321522
1020     0.22932    0.503844    -2.49558  -6.30587e-05
1030    0.233128    0.506296    -0.25484  -0.00014245
1040    0.232169    0.505678     -1.4126  0.000138973
1050    0.230349    0.504506    -3.43832  0.000354046
1060    0.225088    0.501119    -2.42532  0.000164174
1070    0.227065    0.502392     -2.0639  2.34745e-05
1080    0.224618    0.500817   -0.182528  0.000257289
1090     0.22192     0.49908    -1.41282  0.000264017
1100    0.219338    0.497418    -2.42617  9.79699e-05
1110     0.21996    0.497818    -3.29469  0.000172512
1120    0.215888    0.495196    -2.78723  0.000215941
1130    0.215641    0.495038    -1.91935  9.89787e-05
1140    0.213908    0.493922    -3.29419  9.29221e-05
1150    0.213783    0.493841    -2.93242  6.21863e-05
1160    0.212664    0.493121    -3.29447  9.33357e-05
1170    0.211916     0.49264    -3.43952  -5.97388e-06
1180    0.212784    0.493198    -2.28261  0.000199655
1190    0.207923    0.490069    -2.42666  0.000361902
1200    0.205546    0.488538    -2.64374  0.000150611
1210    0.204911     0.48813    -3.36714  0.000157303
1220      0.2024    0.486513    -3.22287  0.000376527
1230     0.19738    0.483282    -2.71527  8.91171e-05
1240    0.200617    0.485366    -2.21051  0.000102347
1250    0.195333    0.481964    -3.51155  0.000328103
1260    0.194055    0.481141    -2.64374  0.000140526
1270    0.192523    0.480154    -2.20973  0.000222635
1280    0.189603    0.478274    -2.86096  0.000279752
1290    0.186928    0.476552    -3.00537  0.00026779
1300    0.184247    0.474826    -2.35463  0.00023685
1310    0.182191    0.473503    -2.57129  7.30835e-05
1320    0.182785    0.473885    -1.99329  0.000130352
1330    0.179584    0.471824    -2.57178  0.000358534
1340    0.175615    0.469269    -3.22237  0.000314917
1350    0.173285     0.46777    -4.66946  0.000315735
1360      0.1693    0.465204    -4.23502  0.000119267
1370      0.1709    0.466234     -3.7299  9.44056e-05
1380    0.167412    0.463988    -4.52497  0.000393859
1390    0.163023    0.461163    -4.16299  0.000247993
1400    0.162452    0.460795    -3.94599  0.000133805
1410    0.160347     0.45944     -4.0183  0.00022994
1420    0.157853    0.457834    -4.88646  0.000108812
1430    0.158171    0.458039    -3.51233  -0.000108722
1440    0.160028    0.459234    -4.38134  -9.60492e-05
1450    0.160092    0.459275    -5.03165  3.21336e-05
1460    0.159385     0.45882    -3.73018  0.000154381
1470    0.157004    0.457288    -3.73011  0.000289888
1480    0.153587    0.455088    -3.22315  0.000284059
1490    0.151323     0.45363    -3.87375  0.000155684
1500    0.150473    0.453083    -4.01901  0.00027247
1510    0.145873    0.450122    -2.78872  0.000124075
1520    0.147992    0.451486    -4.01908  0.00013124
1530    0.143249    0.448432    -4.09068  0.000319229
1540    0.141607    0.447375    -3.22308  0.000352638
1550    0.136196    0.443892    -4.09089  0.000255743
1560    0.136492    0.444083    -4.09103  0.000100467
1570    0.134186    0.442598    -4.01893  6.79612e-05
1580    0.135133    0.443208    -3.80263  -0.000114364
1590    0.136474     0.44407    -4.30868  -0.000101551
1600    0.137164    0.444515    -5.46616  1.58831e-05
1610    0.136156    0.443866    -3.94662  0.000159872
1620    0.133967    0.442457    -6.18927  0.000140522
1630    0.133346    0.442057    -5.53797  -2.96935e-05
1640    0.134561    0.442839     -5.5384  1.63406e-05
1650    0.133019    0.441846    -6.11633  -0.000121964
1660       0.137    0.444409    -5.90073  -6.264e-05
1670    0.134272    0.442653    -5.24908  0.000299554
1680    0.131009    0.440552    -6.55062  0.000115355
1690    0.131965    0.441168    -5.32097  -0.000108888
1700    0.133187    0.441954    -6.33496  6.29641e-05
1710    0.130705    0.440357     -5.1041  4.96201e-05
1720    0.132194    0.441315    -5.82842  -6.28069e-05
1730    0.131961    0.441165    -6.84135  5.65134e-05
1740    0.131064    0.440588    -5.25007  -3.65011e-05
1750    0.132691    0.441635    -4.30995  1.68413e-05
1760    0.130727    0.440371    -5.75696  0.00015666
1770    0.129558    0.439618    -4.59884  -1.6471e-05
1780    0.131057    0.440583    -5.32302  -2.30283e-05
1790    0.130019    0.439915    -5.17839  0.000144065
1800    0.128175    0.438728    -4.30924  0.000164457
1810     0.12673    0.437797    -5.10608  0.000144763
1820     0.12528    0.436864    -4.16582  1.75193e-05
1830    0.126379    0.437572    -4.81676  4.45995e-05
1840    0.124388     0.43629    -4.81684  0.000185904
1850    0.122661    0.435178    -4.02098  0.000247056
1860    0.119447    0.433109    -5.68458  0.000139584
1870    0.119869    0.433381    -5.82962  -2.2028e-05
1880    0.119887    0.433392    -5.90271  0.000113216
1890    0.117605    0.431923    -5.75774  0.000282698
1900    0.114234    0.429752    -5.68514  0.000215501
1910    0.113295    0.429148    -5.68507  -1.12243e-06
1920    0.114256    0.429767    -7.63947  0.00026417
1930    0.108012    0.425747    -6.69786  0.000271188
1940    0.108832    0.426275    -6.11901  -7.17081e-06
1950    0.108155    0.425839    -5.61375  -3.45916e-05
1960    0.109524    0.426721    -5.61389  -4.82108e-05
1970    0.109119     0.42646     -5.6862  0.000136298
1980    0.106798    0.424966    -7.35036  0.000239267
1990    0.104334    0.423379    -6.33778  6.65672e-06
2000    0.106665     0.42488    -4.89091  -0.000178448
2010    0.107903    0.425677    -5.90398  1.35612e-05
2020    0.106394    0.424705    -4.74615  5.47308e-05
2030    0.106808    0.424972    -4.60181  -0.000131127
2040    0.109016    0.426394     -6.2659  2.0498e-05
2050    0.106398    0.424708    -5.83111  3.40711e-05
2060    0.108335    0.425955    -5.83146  4.8285e-05
2070    0.105433    0.424087     -5.6141  0.000193581
2080    0.104463    0.423462    -5.46962  7.62686e-05
2090    0.103907    0.423105    -6.04903  8.34439e-05
2100    0.102794    0.422388    -6.26688  0.000187934
2110    0.100149    0.420685    -4.74721  0.000292758
2120   0.0969392    0.418619    -5.18094  0.000195866
2130   0.0962313    0.418163    -5.32542  0.000147648
2140   0.0939862    0.416717    -5.75993  0.000105967
2150    0.094112    0.416798    -5.47068  0.000288371
2160   0.0882188    0.413004    -4.23954  0.000281728
2170   0.0884774    0.413171    -5.83181  3.02289e-05
2180   0.0876142    0.412615    -6.04917  -8.21613e-05
2190   0.0901207    0.414229    -7.27988  3.03954e-05
2200   0.0870063    0.412224    -5.76035  -2.62499e-05
2210   0.0906457    0.414567    -4.96492  -8.93392e-05
2220   0.0887931    0.413374    -5.90462  0.000213718
2230   0.0863713    0.411815    -5.90462  0.000178875
2240   0.0852156    0.411071    -4.96414  -2.58885e-05
2250   0.0868891    0.412148    -6.05009  3.80289e-05
2260    0.084455    0.410581     -6.3392  0.000130136
2270   0.0842863    0.410473    -6.84601  -0.000132365
2280   0.0871023    0.412286    -6.99099  -8.27007e-05
2290   0.0859404    0.411538    -6.26759  0.000144869
2300    0.084205     0.41042    -6.55698  0.000237973
2310   0.0811809    0.408474    -6.62873  0.000117035
2320   0.0818643    0.408913    -6.41207  -1.83363e-05
2330   0.0815476     0.40871     -5.9054  0.000124813
2340    0.079368    0.407306    -5.10877  0.000110679
2350    0.079334    0.407285    -4.81966  0.000147028
2360   0.0764274    0.405413    -4.74785  0.000348572
2370   0.0723626    0.402796     -5.1094  3.97716e-05
2380    0.075632    0.404901    -5.83443  -1.01056e-05
2390   0.0725647    0.402927    -4.82129  0.000343221
2400   0.0687676    0.400482    -5.90575  0.000177796
2410   0.0690088    0.400637    -6.84736  6.27164e-05
2420   0.0675133    0.399674     -6.9191  0.000294716
2430   0.0631145    0.396843    -7.20793  0.000295313
2440    0.061607    0.395872    -7.13526  5.57825e-06
2450   0.0630029    0.396771    -6.26816  -4.51764e-05
2460   0.0625105    0.396454     -6.1957  0.000209631
2470   0.0588103    0.394072    -6.77413  0.000173498
2480   0.0590406     0.39422    -6.99099  0.000232666
2490    0.054157    0.391076    -7.13512  0.000167105
2500   0.0556985    0.392068    -6.41236  9.47181e-05
2510   0.0522626    0.389856     -6.4841  -8.05706e-06
2520   0.0558596    0.392172    -7.20821  -3.69919e-05
2530   0.0530024    0.390333    -6.91819  6.54522e-05
2540   0.0545506    0.391329    -6.91953  -0.000191864
2550   0.0568397    0.392803    -5.90632  -5.95801e-05
2560   0.0557422    0.392096    -5.90617  -8.95033e-05
2570   0.0586298    0.393955     -7.8605  -0.000193005
2580   0.0596023    0.394581    -6.77505  8.77349e-05
2590   0.0568751    0.392826    -7.42521  2.09795e-05
2600   0.0591827    0.394311    -7.28158  -7.51365e-05
2610   0.0583778    0.393793     -6.9191  0.00014007
2620   0.0563813    0.392508    -5.47266  1.37834e-05
2630   0.0581022    0.393616    -5.25502  -2.32039e-05
2640   0.0568454    0.392807    -5.32768  0.000200512
2650   0.0540919    0.391034    -6.77406  3.64989e-05
2660   0.0561154    0.392337    -4.96556  -0.000187665
2670   0.0578452     0.39345    -5.25558  0.000111636
2680   0.0538827    0.390899    -5.54455  0.00013408
2690   0.0551636    0.391724     -6.3411  -3.05621e-05
2700   0.0544939    0.391293    -5.18306  8.2122e-05
2710   0.0535212    0.390666    -5.47336  2.20351e-05
2720   0.0540532    0.391009    -4.89494  0.00024863
2730   0.0485486    0.387465    -4.38826  0.000165762
2740    0.050738    0.388875    -3.88194  0.000197021
2750   0.0446082    0.384928    -5.03886  0.00012877
2760   0.0481626    0.387217     -4.8948  -7.51065e-05
2770   0.0461103    0.385895    -3.37555  9.15008e-05
2780   0.0463326    0.386039    -4.89487  2.34075e-05
2790   0.0456422    0.385594    -4.46128  0.00010724
2800   0.0441878    0.384658    -5.03893  -0.000205411
2810   0.0497504    0.388239    -4.02762  -0.000205495
2820   0.0482976    0.387304    -5.83556  0.000405684
2830   0.0416367    0.383015     -4.9669  0.000268507
2840   0.0429275    0.383846     -5.7631  -9.08827e-05
2850   0.0434543    0.384186    -6.41469  -0.000121931
2860   0.0453661    0.385416    -5.54575  3.94385e-05
2870   0.0426656    0.383678    -5.18362  8.54667e-05
2880   0.0436568    0.384316     -5.1111  -0.0002073
2890   0.0468116    0.386347    -5.61834  -0.000107259
2900    0.045802    0.385697    -4.60555   0.0001398
2910   0.0440156    0.384547    -5.03886  0.000101386
2920   0.0437742    0.384391    -5.03914  -4.56855e-05
2930   0.0449293    0.385135    -5.18426  -0.000162302
2940   0.0470203    0.386481    -4.75032  -0.000193829
2950   0.0488059    0.387631    -3.95489  -0.000100866
2960   0.0490376     0.38778    -5.47428  0.000132902
2970   0.0461478     0.38592    -5.54631  0.000242498
2980   0.0441876    0.384658    -5.03978  -0.00010116
2990    0.048171    0.387222     -4.9681  -0.000202942
3000   0.0482465    0.387271    -5.32945  -7.81942e-05
3010   0.0497349    0.388229    -5.11244  8.15447e-06
3020   0.0480834    0.387166    -5.90858  0.000173271
3030   0.0462695    0.385998    -5.98131  0.000102805
3040   0.0460273    0.385842    -6.41539  -0.000125745
3050   0.0487844    0.387617    -4.67956  -3.89131e-05
3060   0.0468055    0.386343     -5.0407  -3.93737e-05
3070   0.0495719    0.388124    -4.82411  6.39293e-05
3080   0.0455269     0.38552    -4.89593  1.59847e-05
3090   0.0492522    0.387918    -5.76501  -3.11151e-05
3100   0.0461492     0.38592    -7.21174  0.000262959
3110    0.043993    0.384532    -6.05391  8.03489e-05
3120   0.0445423    0.384886    -6.12664  0.000144676
3130   0.0410995     0.38267    -6.70499  0.000208819
3140   0.0403659    0.382197    -6.63254  1.7371e-05
3150   0.0407521    0.382446    -6.63275  4.15564e-05
3160   0.0395348    0.381662    -5.62095  1.74638e-05
3170   0.0404028    0.382221    -6.12749  -3.86538e-05
3180   0.0403078     0.38216    -5.76586  0.000210941
3190    0.036184    0.379505    -5.33128  0.000235478
3200   0.0355983    0.379128    -4.89734  0.000123303
3210   0.0337179    0.377917     -4.6802  5.8814e-05
3220    0.034422    0.378371     -4.5355  0.000124016
3230   0.0312376    0.376321    -3.66684  9.16397e-05
3240   0.0325892    0.377191    -4.60795  -5.40806e-05
3250   0.0323192    0.377017    -4.75279  0.000108462
3260     0.03042    0.375794    -3.95694  3.52884e-05
3270   0.0316134    0.376562    -3.45076  2.74396e-05
3280   0.0298712    0.375441    -5.25862  0.000223572
3290    0.027142    0.373684     -3.5946  0.000109515
3300   0.0276809    0.374031    -4.17394  5.2678e-05
3310   0.0260884    0.373006    -4.10149  2.80275e-05
3320   0.0271203     0.37367    -5.18716  0.000110561
3330   0.0238772    0.371582      -3.523  0.000102347
3340   0.0250734    0.372352    -4.53628  -3.72812e-05
3350   0.0246228    0.372062    -3.74043  0.000111223
3360   0.0228489     0.37092    -5.62138  8.66331e-05
3370   0.0228901    0.370947    -4.60817  -2.07249e-05
3380   0.0232634    0.371187    -4.60838  -4.15929e-06
3390   0.0229733       0.371    -5.83895  2.90366e-05
3400   0.0226827    0.370813    -5.18701  0.000129041
3410   0.0203925    0.369339    -5.76579  5.42334e-05
3420    0.021598    0.370115    -5.54893  4.63105e-05
3430   0.0194663    0.368742    -4.60831  8.80219e-05
3440   0.0198376    0.368981    -4.75314  0.000147118
3450   0.0165239    0.366848     -4.3197  0.000256361
3460   0.0147103     0.36568    -4.82637  8.0798e-05
3470    0.014908    0.365808    -4.53677  5.59508e-05
3480   0.0135913     0.36496      -5.188  0.000148725
3490   0.0119335    0.363893    -4.39144  6.47324e-05
3500   0.0122967    0.364127    -5.04303  -7.01856e-05
3510   0.0133372    0.364796    -5.04288  1.43343e-05
3520     0.01201    0.363942    -3.73986  0.000183814
3530  0.00966091     0.36243    -4.10191  0.000320202
3540  0.00560596    0.359819    -3.23396  0.000133897
3550  0.00698296    0.360706    -3.59609  1.54615e-05
3560  0.00529673     0.35962    -3.74064  6.6473e-05
3570   0.0056535     0.35985    -4.46418  5.82863e-05
3580  0.00413101     0.35887    -4.39201  -4.43917e-05
3590  0.00654134    0.360421    -3.74127  4.15077e-05
3600  0.00330085    0.358335    -4.17409  -1.89265e-05
3610  0.00691987    0.360665    -3.30726  -0.000138844
3620  0.00607772    0.360123    -3.52441  0.00023078
3630  0.00230428    0.357694    -3.95701  5.87098e-05
3640  0.00490353    0.359367    -3.74071  -0.000165267
3650  0.00560962    0.359821    -3.66804  -0.00032172
3660   0.0113379    0.363509     -4.1755  -6.22951e-05
3670  0.00685552    0.360624    -3.95757  0.00012772
3680  0.00878354    0.361865    -4.17543  1.55842e-05
3690  0.00654384    0.360423    -4.60866  -7.18035e-05
3700   0.0102196    0.362789    -4.75392  -6.28321e-05
3710  0.00780048    0.361232    -4.89869  3.25896e-05
3720  0.00956782     0.36237    -3.45231  -0.000115749
3730   0.0101155    0.362722    -4.60923  -8.11545e-05
3740   0.0111909    0.363415    -4.32062  0.000155666
3750  0.00700213    0.360718    -4.89826  0.000190922
3760  0.00737246    0.360956    -4.46453  -5.46917e-05
3770  0.00809596    0.361422    -3.81394  -0.00025774
3780   0.0125273    0.364275    -4.32097  -0.000187598
3790   0.0118479    0.363838    -3.16292  0.000165387
3800  0.00921952    0.362146     -2.8015  5.93857e-05
3810   0.0106602    0.363073    -3.95877  -1.11077e-05
3820  0.00944167    0.362289    -4.82659  0.000113147
3830  0.00839728    0.361616    -2.72891  5.11711e-05
3840  0.00841825     0.36163    -2.72926  -1.99472e-05
3850  0.00879622    0.361873    -2.22336  0.00015874
3860  0.00524345    0.359586     -2.8736  0.000293202
3870  0.00293218    0.358098    -2.87396  5.21896e-05
3880  0.00419966    0.358914      -2.802  0.000205321
3890  -0.00117424    0.355454    -3.59707  0.000187459
3900  0.000450467      0.3565      -1.789  -0.000171757
3910   0.0022609    0.357666    -2.65737  -2.79118e-05
3920   0.0010087    0.356859     -2.0786  0.00022488
3930  -0.00223669     0.35477    -2.15042  0.000153016
3940  -0.00205162    0.354889   -0.848523  0.000317047
3950  -0.00857763    0.350688    -2.14999  0.000290292
3960  -0.00785747    0.351152    -1.86082  -0.000126738
3970  -0.00604287     0.35232    -2.07846  -8.14994e-05
3980  -0.00622748    0.352201    -2.44037  -4.54055e-05
3990  -0.00513476    0.352904    -3.01929  4.60027e-05
4000  -0.00714753    0.351609    -2.51268  0.000339029
4010  -0.0119153    0.348539    -3.81458  0.000193123
4020    -0.01101    0.349122    -3.59792  0.000249391
4030  -0.0169032    0.345328    -3.38021  0.000203618
4040  -0.0150824      0.3465    -3.74233  -0.000117815
4050  -0.0145468    0.346845    -3.38071  -0.000293836
4060  -0.00920563    0.350284    -3.52646  -0.000183388
4070  -0.0108791    0.349206    -2.36827  0.000149088
4080  -0.0121874    0.348364    -3.74332  0.000307455
4090  -0.0170282    0.345248    -3.66967  3.84941e-05
4100  -0.0129573    0.347868    -3.81563  -4.4475e-05
4110  -0.0161387     0.34582    -3.95962  0.00022538
4120  -0.0174649    0.344966     -5.1171  2.06694e-05
4130  -0.0165521    0.345554    -4.17635  6.77437e-05
4140  -0.0188197    0.344094    -3.95976  0.000320949
4150  -0.0229711    0.341422    -3.23615  3.06337e-05
4160  -0.0194324      0.3437    -3.45386  0.000200808
4170  -0.0269872    0.338836     -3.0916  0.000351379
4180    -0.02646    0.339175    -4.97333  -1.50264e-05
4190  -0.0266867    0.339029    -4.53932  9.83844e-05
4200  -0.0284277    0.337909    -4.25028  2.27664e-05
4210   -0.027142    0.338736    -4.10615  0.000118038
4220  -0.0307884    0.336389    -3.23728  0.000289205
4230  -0.0329261    0.335013    -3.74382  0.000185552
4240  -0.0344995       0.334    -4.03299  -4.27809e-05
4250  -0.0320705    0.335563    -5.40833  -5.2141e-05
4260  -0.0334567    0.334671    -4.17769  0.000253773
4270   -0.037146    0.332296    -4.25014  3.3821e-05
4280  -0.0341331    0.334236    -4.10545  5.70081e-06
4290    -0.03726    0.332222    -3.59919  0.000303606
4300  -0.0402052    0.330326    -3.67101  6.36006e-05
4310   -0.038532    0.331404    -3.52653  -9.99954e-05
4320  -0.0382053    0.331614    -3.96026  -7.14285e-05
4330  -0.0371034    0.332323    -3.38219  -0.000100699
4340  -0.0361913     0.33291     -5.1909  3.48879e-05
4350  -0.0378012    0.331874    -3.96026  -1.38529e-05
4360  -0.0359143    0.333089    -4.97361  -0.000130553
4370  -0.0351901    0.333555    -3.96089  -4.18704e-06
4380  -0.0358305    0.333143     -4.1058  2.50161e-05
4390  -0.0356904    0.333233    -3.96089  -1.40266e-05
4400    -0.03555    0.333323    -3.67136  -6.31422e-05
4410  -0.0344276    0.334046    -4.90102  -4.27738e-06
4420  -0.0354644    0.333378    -4.32245  7.43102e-05
4430  -0.0359138    0.333089    -3.74361  6.47603e-05
4440  -0.0367596    0.332545    -3.45443  -0.000152534
4450  -0.0328631    0.335053    -3.09315  -0.000132853
4460  -0.0341026    0.334255    -3.23827  0.000134106
4470  -0.0355452    0.333326    -4.39554  0.000114695
4480  -0.0363965    0.332778    -3.52731  -4.3422e-06
4490  -0.0354584    0.333382    -3.52801  7.56202e-05
4500  -0.0379089    0.331805    -4.03412  0.000115568
4510  -0.0377697    0.331894    -4.39597  -5.40018e-05
4520  -0.0368289      0.3325    -4.17896  -8.42236e-05
4530  -0.0360853    0.332979    -3.16638  -4.1455e-06
4540  -0.0367459    0.332553    -3.09471  0.000358164
4550  -0.0432485    0.328367    -3.38332  0.000197565
4560  -0.0406972     0.33001    -2.44341  0.000158701
4570  -0.0464225    0.326324    -2.44263  0.000371118
4580  -0.0481196    0.325231    -2.37096  0.000109166
4590  -0.0486059    0.324918   -0.996609  0.000241772
4600   -0.052955    0.322118    -1.64763  0.000262672
4610  -0.0538593    0.321536    -1.64763  0.000253775
4620  -0.0580305    0.318851    -2.00918  0.000285066
4630  -0.0595606    0.317866    -1.35831  0.000184004
4640  -0.0617106    0.316481    -2.00954  0.00012309
4650  -0.0620224    0.316281    -1.28614  -8.17934e-05
4660  -0.0600748    0.317535   -0.997527  0.000113726
4670   -0.064297    0.314816    -1.72057  0.000257981
4680  -0.0652344    0.314213   -0.707574  -1.9753e-05
4690  -0.0639019    0.315071    -1.57588  -7.13844e-05
4700  -0.0638067    0.315132    -1.35894  -7.1778e-05
4710  -0.0624663    0.315995    -2.37187  0.000198282
4720  -0.0677723    0.312579    -1.50314  9.42828e-05
4730   -0.064352    0.314781    -1.79281  -0.000300946
4740  -0.0617534    0.316454    -1.64854  -5.13192e-05
4750  -0.0633256    0.315442    -1.28692  0.000105162
4760  -0.0638566      0.3151   -0.780662  3.22077e-05
4770  -0.0639698    0.315027   -0.924933  4.2887e-05
4780  -0.0647144    0.314548    -1.43126  8.51285e-05
4790  -0.0656723    0.313931    -1.35923  0.000106527
4800  -0.0668449    0.313176    -1.86612  0.000128067
4810  -0.0682337    0.312282     -1.1418  0.000128548
4820  -0.0694159    0.311521    -1.43119  7.59885e-05
4830  -0.0697534    0.311304    -1.14201  -7.25094e-05
4840  -0.0679657    0.312454    -2.73386  3.39642e-05
4850  -0.0704327    0.310866    -1.06949  9.77248e-05
4860  -0.0699202    0.311196    -1.86527  4.4924e-05
4870  -0.0713312    0.310288     -1.2867  8.77835e-05
4880  -0.0716759    0.310066    -1.50364  0.000141922
4890  -0.0741696     0.30846    -2.44355  1.31536e-05
4900  -0.0719389    0.309897    -3.45711  -6.17973e-05
4910  -0.0729337    0.309256    -2.58881  -7.31573e-05
4920  -0.0704758    0.310838    -2.58937  -0.000159684
4930    -0.06974    0.311312    -3.60223  -0.000106264
4940  -0.0683505    0.312207    -3.60244  1.29107e-05
4950  -0.0699982    0.311146    -3.38523  -3.08927e-05
4960  -0.0677327    0.312604    -3.02346  -3.06476e-05
4970  -0.0693853    0.311541    -4.03617  0.000176539
4980  -0.0712634    0.310331    -3.38523  -0.000293725
4990  -0.0635108    0.315322    -2.01039  -0.000763989
