Time   Number   
ps   
0          15          15
10          14          20
20          12          14
30          15          15
40          13          15
50          12          18
60          15          17
70          15          17
80          18          18
90          16          20
100          15          17
110          15          15
120          16          20
130          16          16
140          16          18
150          15          17
160          17          19
170          18          18
180          17          17
190          16          18
200          19          19
210          15          19
220          16          18
230          17          23
240          17          19
250          15          21
260          17          19
270          13          17
280          16          16
290          16          22
300          17          19
310          15          19
320          15          15
330          14          24
340          14          16
350          17          19
360          14          16
370          15          15
380          14          16
390          12          16
400          13          19
410          14          16
420          12          14
430          14          20
440          15          17
450          12          16
460          15          15
470          14          16
480          12          14
490          11          17
500           8          16
510          15          15
520          13          13
530          13          13
540          15          15
550          12          12
560          14          18
570          12          16
580          13          13
590          12          16
600          13          15
610          12          16
620          13          15
630          13          13
640          13          17
650          13          15
660          13          13
670          11          13
680          14          14
690          13          15
700          11          19
710          10          18
720          11          15
730          11          17
740          13          15
750          12          14
760          11          15
770           9          13
780          11          11
790          11          13
800          11          11
810          11          13
820          12          14
830          11          15
840          14          14
850          12          14
860          13          13
870          13          13
880          14          18
890          11          15
900          12          12
910          14          14
920          14          16
930          13          17
940          13          17
950          13          13
960          13          17
970          15          15
980          15          17
990          10          14
1000          13          17
1010          15          15
1020          18          18
1030          15          17
1040          15          19
1050          18          20
1060          19          19
1070          18          20
1080          17          19
1090          18          22
1100          18          18
1110          20          22
1120          16          20
1130          16          18
1140          16          20
1150          18          22
1160          19          19
1170          17          19
1180          18          22
1190          19          23
1200          18          18
1210          17          21
1220          20          22
1230          20          22
1240          19          23
1250          20          20
1260          18          22
1270          16          26
1280          21          21
1290          18          20
1300          19          21
1310          17          19
1320          17          21
1330          19          19
1340          18          22
1350          17          23
1360          17          19
1370          18          20
1380          18          20
1390          18          18
1400          15          21
1410          16          18
1420          18          22
1430          18          24
1440          18          22
1450          17          21
1460          18          18
1470          17          25
1480          19          23
1490          14          18
1500          16          24
1510          16          18
1520          18          26
1530          19          21
1540          19          21
1550          17          19
1560          17          25
1570          17          21
1580          16          18
1590          16          18
1600          17          19
1610          17          21
1620          16          18
1630          19          19
1640          19          21
1650          18          20
1660          19          23
1670          16          20
1680          20          24
1690          18          18
1700          19          25
1710          18          20
1720          18          20
1730          16          22
1740          17          19
1750          16          26
1760          19          25
1770          20          22
1780          19          25
1790          15          23
1800          19          19
1810          18          20
1820          16          20
1830          18          24
1840          18          18
1850          19          19
1860          16          18
1870          16          22
1880          17          21
1890          15          21
1900          16          20
1910          19          21
1920          17          23
1930          17          21
1940          20          20
1950          17          23
1960          18          22
1970          19          21
1980          16          26
1990          20          20
2000          16          22
2010          20          24
2020          19          19
2030          17          25
2040          19          19
2050          20          20
2060          17          19
2070          16          24
2080          16          18
2090          17          21
2100          16          18
2110          18          20
2120          20          20
2130          19          19
2140          17          21
2150          15          21
2160          16          20
2170          18          22
2180          18          20
2190          17          17
2200          17          21
2210          16          20
2220          20          22
2230          17          17
2240          16          18
2250          15          21
2260          15          17
2270          18          20
2280          18          18
2290          19          23
2300          16          20
2310          19          27
2320          18          22
2330          18          20
2340          16          22
2350          18          22
2360          17          21
2370          17          23
2380          17          19
2390          17          19
2400          19          23
2410          19          19
2420          17          17
2430          18          22
2440          17          19
2450          18          22
2460          20          22
2470          21          21
2480          18          18
2490          20          22
2500          20          22
2510          18          20
2520          16          20
2530          20          24
2540          19          19
2550          18          18
2560          22          22
2570          17          19
2580          16          20
2590          19          21
2600          19          19
2610          18          24
2620          18          22
2630          18          18
2640          17          19
2650          16          16
2660          15          21
2670          16          16
2680          14          16
2690          13          19
2700          14          20
2710          14          16
2720          15          21
2730          18          18
2740          14          22
2750          14          18
2760          15          19
2770          15          19
2780          17          21
2790          12          16
2800          15          21
2810          13          19
2820          16          22
2830          15          21
2840          15          17
2850          12          22
2860          18          20
2870          15          23
2880          16          16
2890          15          21
2900          16          16
2910          17          21
2920          13          13
2930          15          17
2940          15          19
2950          14          16
2960          17          19
2970          14          20
2980          16          16
2990          17          17
3000          18          20
3010          15          19
3020          16          16
3030          15          19
3040          12          20
3050          13          19
3060          15          21
3070          13          19
3080          12          22
3090          15          21
3100          16          20
3110          15          17
3120          15          19
3130          13          19
3140          13          17
3150          12          20
3160          12          16
3170          15          25
3180          13          15
3190          14          16
3200          14          18
3210          14          20
3220          13          15
3230          15          15
3240          13          17
3250          16          18
3260          15          15
3270          15          19
3280          13          15
3290          14          18
3300          14          18
3310          16          18
3320          17          21
3330          18          18
3340          17          17
3350          18          18
3360          17          17
3370          16          18
3380          15          19
3390          17          17
3400          14          16
3410          17          19
3420          17          19
3430          16          16
3440          15          17
3450          12          14
3460          16          16
3470          17          17
3480          18          18
3490          15          21
3500          13          17
3510          13          13
3520          15          21
3530          16          18
3540          16          18
3550          15          17
3560          15          17
3570          14          18
3580          13          15
3590          13          15
3600          13          13
3610          13          15
3620          13          15
3630          14          14
3640          13          17
3650          14          16
3660          14          18
3670          12          20
3680          12          18
3690          14          16
3700          14          16
3710          14          14
3720          13          15
3730          14          16
3740          12          16
3750          11          15
3760          12          14
3770          10          16
3780          12          12
3790          12          14
3800          12          14
3810          12          14
3820          11          21
3830          11          13
3840          12          14
3850          13          17
3860          13          13
3870           9          13
3880          12          16
3890          14          18
3900          14          14
3910          12          16
3920          14          18
3930          12          16
3940          13          15
3950          13          13
3960          13          15
3970          12          12
3980          12          14
3990          14          14
4000          14          16
4010          14          14
4020          14          16
4030          10          16
4040          12          16
4050          13          15
4060          13          17
4070          12          16
4080          11          13
4090          14          16
4100          12          14
4110          12          12
4120          13          13
4130          12          16
4140          14          20
4150          12          16
4160          14          18
4170           9          13
4180          12          16
4190          11          13
4200          11          13
4210           7          15
4220          11          17
4230          13          13
4240           8          14
4250          10          12
4260          14          18
4270          10          16
4280          12          14
4290          11          15
4300          12          14
4310          11          15
4320           8          12
4330          12          12
4340          12          12
4350          14          16
4360          14          16
4370          14          16
4380          11          13
4390          11          17
4400          13          15
4410          14          16
4420          15          15
4430          15          19
4440          14          18
4450          11          11
4460          11          13
4470          14          14
4480           9          11
4490          12          16
4500          11          15
4510          11          13
4520          13          15
4530          10          16
4540          12          16
4550          15          19
4560           9          19
4570          12          14
4580           9          17
4590          11          17
4600          12          14
4610          13          15
4620          14          14
4630          13          13
4640          12          16
4650          15          15
4660          15          17
4670          14          18
4680          13          17
4690          15          17
4700          13          15
4710          12          12
4720          12          18
4730          14          16
4740          14          16
4750          13          17
4760          12          16
4770          15          17
4780          15          17
4790          11          15
4800          13          17
4810          14          16
4820          15          19
4830          13          13
4840          13          13
4850          13          13
4860          13          15
4870          11          11
4880          12          14
4890          14          14
4900           9          17
4910          12          16
4920          15          15
4930          15          17
4940          15          15
4950          16          16
4960          13          15
4970          13          13
4980          14          18
4990          14          16
5000          13          17
5010          14          14
5020          12          12
5030          14          22
5040          13          17
5050          13          15
5060          13          19
5070          14          18
5080          17          19
5090          14          14
5100          14          18
5110          13          17
5120          12          20
5130          13          19
5140          12          16
5150          13          17
5160          15          19
5170          13          15
5180          13          15
5190          11          17
5200          10          16
5210          12          12
5220          12          12
5230          13          15
5240          11          15
5250          12          20
5260          13          17
5270          11          15
5280          13          13
5290          13          15
5300          11          11
5310          12          14
5320          12          12
5330          14          14
5340          11          17
5350          12          14
5360          13          17
5370          15          15
5380          13          15
5390          15          15
5400          14          16
5410          15          17
5420          15          17
5430          16          16
5440          17          17
5450          14          16
5460          15          17
5470          14          16
5480          14          20
5490          15          17
5500          14          18
5510          15          17
5520          17          19
5530          15          19
5540          15          21
5550          16          18
5560          13          15
5570          14          16
5580          16          20
5590          15          17
5600          15          15
5610          13          15
5620          17          17
5630          15          17
5640          11          15
5650          13          17
5660          13          17
5670          12          18
5680          10          18
5690          14          18
5700          13          17
5710          15          15
5720          13          17
5730          14          18
5740          16          18
5750          15          17
5760          14          14
5770          13          15
5780          13          15
5790          13          19
5800          14          14
5810          16          16
5820          16          16
5830          14          18
5840          14          14
5850          13          17
5860          14          18
5870          15          19
5880          14          16
5890          14          16
5900          15          17
5910          16          18
5920          12          12
5930          14          14
5940          12          12
5950          12          14
5960          16          18
5970          12          14
5980          18          20
5990          18          18
6000          16          18
6010          16          20
6020          13          15
6030          14          14
6040          13          17
6050          15          17
6060          13          15
6070          16          18
6080          11          13
6090          14          18
6100          15          15
6110          15          15
6120          17          19
6130          17          19
6140          14          20
6150          18          22
6160          16          16
6170          16          18
6180          18          18
6190          19          19
6200          17          23
6210          15          15
6220          16          16
6230          15          23
6240          14          18
6250          13          17
6260          15          17
6270          14          18
6280          15          17
6290          13          21
6300          14          18
6310          15          15
6320          11          15
6330          14          14
6340          14          18
6350          17          17
6360          14          16
6370          16          16
6380          16          18
6390          16          16
6400          14          14
6410          12          18
6420          16          20
6430          14          18
6440          15          19
6450          13          17
6460          14          16
6470          13          15
6480          18          18
6490          15          19
6500          13          17
6510          17          21
6520          17          17
6530          15          21
6540          13          13
6550          14          16
6560          14          16
6570          14          16
6580          14          14
6590          14          14
6600          15          21
6610          18          18
6620          18          18
6630          17          17
6640          16          20
6650          17          17
6660          17          21
6670          16          18
6680          18          18
6690          15          23
6700          17          19
6710          16          22
6720          13          19
6730          13          19
6740          13          15
6750          15          17
6760          18          18
6770          15          15
6780          13          19
6790          17          19
6800          15          17
6810          15          15
6820          13          19
6830          14          18
6840          14          18
6850          12          18
6860          13          13
6870          12          12
6880          13          15
6890          15          17
6900          11          15
6910          14          14
6920          14          20
6930          12          16
6940          13          15
6950          11          13
6960          16          16
6970          13          13
6980          14          16
6990          13          23
7000          16          20
7010          16          22
7020          15          19
7030          14          18
7040          13          19
7050          17          19
7060          13          17
7070          18          18
7080          16          18
7090          12          16
7100          15          17
7110          14          16
7120          14          18
7130          15          21
7140          16          20
7150          14          18
7160          13          21
7170          18          18
7180          12          18
7190          14          18
7200          14          18
7210          15          15
7220          14          18
7230          14          16
7240          16          16
7250          13          15
7260          13          19
7270          15          19
7280          16          18
7290          11          17
7300          15          19
7310          17          17
7320          17          21
7330          17          17
7340          15          15
7350          16          20
7360          18          22
7370          16          18
7380          16          18
7390          14          20
7400          14          16
7410          14          18
7420          13          15
7430          10          14
7440          11          11
7450          12          18
7460          14          16
7470          10          10
7480          10          10
7490          11          11
7500          13          13
7510          12          12
7520          12          14
7530          14          18
7540          12          12
7550          13          17
7560          13          15
7570          14          18
7580          14          14
7590          14          14
7600          13          19
7610          12          18
7620          14          18
7630          15          19
7640          15          17
7650          15          19
7660          15          17
7670          14          18
7680          13          15
7690          11          15
7700          13          13
7710          14          16
7720          12          14
7730          13          17
7740          13          17
7750          15          17
7760          15          17
7770          17          19
7780          14          14
7790          15          19
7800          13          19
7810          15          15
7820          11          17
7830          16          16
7840          16          20
7850          14          16
7860          13          15
7870          12          14
7880          11          19
7890          15          15
7900          13          13
7910          11          15
7920          11          15
7930          11          15
7940          14          14
7950           8          16
7960           8          12
7970          12          16
7980          10          12
7990          11          11
8000           9           9
8010          11          13
8020          10          12
8030           9          11
8040           7          13
8050           9          11
8060           9          15
8070          10          10
8080          10          10
8090           8           8
8100          11          13
8110          11          13
8120          10          12
8130          10          14
8140          13          15
8150          11          13
8160          11          11
8170          11          13
8180           9          17
8190          10          12
8200          11          11
8210           9          13
8220          11          13
8230           9          13
8240          10          12
8250          13          17
8260          12          14
8270           9          17
8280          12          20
8290          11          17
8300           8          16
8310          14          16
8320          13          15
8330          12          14
8340          10          16
8350          13          15
8360          12          14
8370          14          18
8380          16          22
8390          15          19
8400          15          19
8410          15          17
8420          17          19
8430          14          18
8440          15          15
8450          13          13
8460          12          18
8470          14          14
8480          14          14
8490          10          20
8500          14          16
8510          12          16
8520          15          17
8530          13          17
8540          14          14
8550          14          14
8560          13          13
8570          15          15
8580          11          15
8590          14          18
8600          13          13
8610          11          11
8620          14          14
8630          14          16
8640          12          14
8650          14          14
8660          10          14
8670          13          13
8680          13          15
8690          11          15
8700          13          13
8710          11          17
8720          14          14
8730          15          15
8740          13          15
8750          14          16
8760          12          16
8770          10          16
8780          11          15
8790          13          15
8800           8          18
8810          14          16
8820          12          16
8830           8          10
8840          11          17
8850          12          12
8860           8          14
8870          12          16
8880          13          17
8890          13          13
8900          11          11
8910          11          15
8920          12          14
8930          11          17
8940          10          16
8950          13          13
8960          10          16
8970           8          12
8980           9          13
8990          10          12
9000          12          16
9010          13          13
9020          13          21
9030          12          14
9040          13          15
9050          13          15
9060          15          15
9070          13          15
9080          13          15
9090          14          18
9100          13          15
9110          13          13
9120          11          15
9130          14          16
9140          15          17
9150          14          18
9160          14          14
9170          12          22
9180          14          20
9190          14          24
9200          14          14
9210          12          14
9220          12          18
9230          16          16
9240          14          18
9250          13          15
9260          11          13
9270          13          17
9280          10          10
9290          14          18
9300          12          12
9310          13          17
9320          13          13
9330          10          12
9340          14          16
9350          12          12
9360          12          14
9370           9           9
9380          12          12
9390           8          12
9400          12          12
9410          10          12
9420           8          14
9430          13          15
9440           9          15
9450          11          13
9460          11          11
9470          12          12
9480          13          17
9490          15          17
9500          13          17
9510          14          14
9520          14          20
9530          14          14
9540          16          18
9550          14          16
9560          14          16
9570          14          16
9580          14          18
9590          14          16
9600          14          14
9610          14          16
9620          14          16
9630          12          14
9640          14          14
9650          12          14
9660          11          17
9670          11          15
9680          14          16
9690          10          14
9700          11          15
9710          14          16
9720          10          16
9730          12          12
9740          14          16
9750          14          16
9760          14          20
9770          11          19
9780          14          14
9790          13          17
9800          13          17
9810          16          16
9820          14          14
9830          11          17
9840          13          17
9850          13          17
9860          13          15
9870          12          18
9880          17          19
9890          12          14
9900          15          17
9910          16          20
9920          16          20
9930          16          20
9940          14          16
9950          14          18
9960          14          18
9970          17          19
9980          17          17
9990          14          22
10000          17          19
