Time   C(t)   
ps   
0           1           1  2.16968e-09   0.0564494
10    0.442805    0.827095    0.120469   0.0294207
20    0.411587    0.817408   -0.686364  0.00239199
30    0.394966     0.81225  -0.0334718  0.00150617
40    0.381463     0.80806   -0.496308   0.0013758
50     0.36745    0.803711   -0.149837  0.00126306
60    0.356202    0.800221     1.30734  0.00109546
70     0.34554    0.796913   -0.304116  0.00104296
80    0.335343    0.793748   -0.535196  0.000965841
90    0.326224    0.790918    -1.53373  0.000919001
100    0.316963    0.788045     -1.7647  0.000585005
110    0.314523    0.787288    -3.03238  0.000953279
120    0.297897    0.782128    -2.03238  0.000789329
130    0.298737    0.782389    -1.34267  0.000277257
140    0.292352    0.780408   -0.499194  0.00033879
150    0.291961    0.780286    -1.84349  0.000272262
160    0.286907    0.778718    -1.57596  0.00065349
170    0.278891    0.776231   -0.424266  0.000611675
180    0.274673    0.774922    -1.69135  0.000243701
190    0.274017    0.774718    -1.99994  0.000219662
200     0.27028    0.773558    -1.76958  0.000731984
210    0.259378    0.770175    -1.73001  0.000554147
220    0.259197    0.770119    0.226189  0.000209577
230    0.255186    0.768874    0.532834  0.000717195
240    0.244853    0.765668     1.57097  0.000210471
250    0.250977    0.767568     1.79816  0.000118695
260    0.242479    0.764931     1.79909  0.000484375
270    0.241289    0.764562    0.339668  0.000299441
280    0.236491    0.763073     1.56801  0.00050512
290    0.231187    0.761427    -1.46282  0.000730208
300    0.221886    0.758541   -0.233348  -3.91826e-06
310    0.231265    0.761451   0.0695112  -5.91315e-05
320    0.223069    0.758908     1.60525  0.000433291
330    0.222599    0.758762    -1.31217  0.00020951
340    0.218879    0.757608   -0.391075  0.000597779
350    0.210644    0.755052   -0.581244  0.000279284
360    0.213293    0.755875   -0.890026  -6.4519e-05
370    0.211934    0.755453     -1.8502  9.83536e-05
380    0.211326    0.755264    0.337644  9.2265e-05
390    0.210089     0.75488   -0.277559  0.000451127
400    0.202304    0.752464     1.10585  0.000659532
410    0.196898    0.750787    0.952172  -0.00014598
420    0.205223     0.75337     2.21569  6.27331e-05
430    0.195643    0.750398      1.0265  0.000782136
440     0.18958    0.748516   -0.469452  0.000455055
450    0.186542    0.747573  -0.00983955  0.00026626
460    0.184255    0.746864     1.90912  0.00033027
470    0.179937    0.745524    0.143165  0.000686117
480    0.170533    0.742606   -0.853124  0.000223676
490    0.175463    0.744135    0.718692  -9.29758e-05
500    0.172392    0.743183  -0.0105898  -0.000112645
510    0.177716    0.744835    0.409498  -9.97275e-05
520    0.174387    0.743801   -0.204018  0.000448044
530    0.168755    0.742054     0.21813  0.000429719
540    0.165793    0.741135     0.14234  0.000149591
550    0.165764    0.741126    0.755631  9.24669e-05
560    0.163943    0.740561   0.0648262  0.000252661
570     0.16071    0.739557  -0.0120513  -4.1768e-05
580    0.164779     0.74082   -0.512013  -0.000131305
590    0.163337    0.740372   -0.397035  2.22526e-05
600    0.164334    0.740682    -2.50864  0.000106095
610    0.161215    0.739714    -2.01003  0.000112587
620    0.162082    0.739983    -1.47238  2.92055e-05
630    0.160631    0.739533   -0.322108  0.000190437
640    0.158273    0.738801    -1.81813  0.000119742
650    0.158236    0.738789   -0.360396  0.000249482
660    0.153283    0.737253    -1.28011  0.000256214
670    0.153111    0.737199   -0.359421  7.55638e-05
680    0.151772    0.736784   -0.821245  -8.64737e-05
690    0.154841    0.737736   -0.707129  -0.00022285
700    0.156229    0.738167   -0.591701  0.000153663
710    0.151768    0.736782    -0.16974  0.000264291
720    0.150943    0.736527    -1.32188  0.000219432
730    0.147379    0.735421    -1.32113  0.000128558
740    0.148372    0.735729    0.328723  0.000142062
750    0.144538    0.734539    -0.66944  -3.43725e-05
760     0.14906    0.735942   -0.671127  9.03726e-05
770     0.14273    0.733978    0.366599  0.000338876
780    0.142282    0.733839    -0.40232  0.00040547
790    0.134621    0.731462    0.213107  0.000359985
800    0.135082    0.731605    -0.55495  -0.000164458
810     0.13791    0.732482    0.172795  7.86945e-05
820    0.133509    0.731116    0.481464  0.000137759
830    0.135155    0.731627   -0.824282  3.29323e-05
840     0.13285    0.730912    -1.43754  -2.87592e-07
850    0.135161    0.731629   -0.479984  0.000449311
860    0.123864    0.728123     -2.8952  0.000297463
870    0.129211    0.729783   -0.978335  -0.000297031
880    0.129804    0.729967    -1.70822  4.68098e-05
890    0.128275    0.729492   -0.249091   0.0001729
900    0.126346    0.728894   -0.633551  0.000312743
910     0.12202    0.727551   -0.671127  0.00028008
920    0.120745    0.727156  -0.0952246  0.000254207
930    0.116936    0.725974    0.480677  -1.86317e-05
940    0.121117    0.727271   -0.596162  -0.000498781
950    0.126912    0.729069   -0.827767  0.000174965
960    0.117618    0.726185   -0.557874  0.000455534
970    0.117801    0.726242    -1.44061  -0.00017241
980    0.121066    0.727255   -0.328517  6.19646e-05
990    0.116562    0.725858   -0.250215  0.00025631
1000     0.11594    0.725665    0.286423  0.00028397
1010    0.110882    0.724095   -0.595975  0.000109495
1020     0.11375    0.724985   -0.943008  -0.000260142
1030    0.116085     0.72571    0.439165  -9.894e-05
1040    0.115729    0.725599    -0.36808  0.000217818
1050    0.111729    0.724358   -0.635125  0.000130239
1060    0.113124    0.724791    0.170096  9.03059e-05
1070    0.109923    0.723797    0.400613  0.000462594
1080    0.103872     0.72192    0.247573  0.000632939
1090    0.097264    0.719869     -1.5935  3.72056e-05
1100    0.103128    0.721689     -2.2867  -0.000267739
1110    0.102619    0.721531   -0.559185  -0.000221054
1120    0.107549    0.723061    0.322013  4.4255e-05
1130    0.101734    0.721256    -1.36531  0.000146009
1140    0.104629    0.722155   -0.138349  -9.20154e-05
1150    0.103574    0.721827    -1.29008  0.000214946
1160     0.10033    0.720821   -0.867068  4.43511e-05
1170    0.102687    0.721552   -0.100922  -0.00023596
1180    0.105049    0.722285   -0.638761  -9.25533e-05
1190    0.104538    0.722126    0.397204  9.9247e-05
1200    0.103064    0.721669    -1.48235  -0.000299067
1210    0.110519    0.723983    -1.02386  -0.000237361
1220    0.107812    0.723142    -1.40719  0.00039503
1230    0.102619    0.721531    -1.36902  0.00031305
1240    0.101551    0.721199     -1.7912  5.87184e-05
1250    0.101444    0.721166    -3.09567  9.34463e-05
1260   0.0996817    0.720619   -0.792515  -0.000176309
1270    0.104971    0.722261   0.0118817  3.15491e-05
1280   0.0990507    0.720424    -1.13797  0.000259758
1290   0.0997755    0.720649   -0.332677  -8.63973e-05
1300    0.100779     0.72096   -0.793452  -0.00018381
1310    0.103452    0.721789    -1.63842  -0.000128482
1320    0.103348    0.721757    -1.60017  0.000191455
1330   0.0996226    0.720601    -1.63726  0.000407889
1340   0.0951905    0.719226    -2.67278  -3.14042e-06
1350   0.0996854    0.720621    -2.44443  -7.95398e-05
1360   0.0967813    0.719719    -3.67139  0.000150782
1370   0.0966697    0.719685    -1.79068  -2.81408e-06
1380   0.0968376    0.719737    -1.25483  0.000179546
1390   0.0930788     0.71857    -1.90667  0.000130595
1400   0.0942257    0.718926    -1.67634  -0.000100765
1410   0.0950941    0.719196    -2.36755  8.89998e-05
1420   0.0924457    0.718374    -2.13726  -0.00022115
1430   0.0995171    0.720568    -1.98572  -3.7609e-05
1440   0.0931979    0.718607     -1.6772  0.000244084
1450   0.0946354    0.719054    -1.17784  -0.000179258
1460   0.0967831     0.71972    -2.63764  -0.000278736
1470     0.10021    0.720783    -2.44608  -0.000250952
1480    0.101802    0.721277    -2.98426  0.000323202
1490   0.0937461    0.718778    -1.90888  0.000145759
1500   0.0988869    0.720373    -4.09732  -5.94389e-05
1510   0.0949349    0.719146    -3.02183  -3.8733e-05
1520   0.0996616    0.720613     -3.6373  -0.000316354
1530    0.101262     0.72111    -3.48351  3.91863e-06
1540   0.0995832    0.720589    -4.52082  3.23076e-05
1550    0.100616    0.720909    -5.71054  -7.47476e-05
1560    0.101078    0.721053      -4.329  -0.00020394
1570    0.104695    0.722175    -5.52015  0.000261996
1580   0.0958382    0.719427    -5.44151  0.000319322
1590   0.0983082    0.720193    -4.48242  -0.000153759
1600   0.0989134    0.720381    -4.98156  -0.000132659
1610    0.100961    0.721017    -6.05753  6.16863e-05
1620   0.0976797    0.719998    -4.86651  -6.11003e-05
1630    0.102183    0.721396    -4.17739  0.000148669
1640   0.0947063    0.719076    -5.13561  0.000618466
1650   0.0898141    0.717557    -5.51793  -0.00010403
1660   0.0967869    0.719721    -6.40326  -0.000350121
1670   0.0968165     0.71973    -4.98227  0.000142273
1680   0.0939414    0.718838    -4.90581  0.000251422
1690    0.091788     0.71817    -6.01902  0.000150206
1700   0.0909373    0.717906    -5.02097  0.00023813
1710   0.0870254    0.716692    -6.13381  -8.97586e-05
1720   0.0927325    0.718463    -5.32945  -0.000476471
1730   0.0965549    0.719649    -5.21493  -4.63199e-05
1740   0.0936589     0.71875    -6.90401  0.000707139
1750   0.0824121     0.71526    -4.48444  0.000283249
1760   0.0879939    0.716993    -4.33238  -0.000235979
1770   0.0871317    0.716725    -3.25827  0.000174398
1780   0.0845059     0.71591    -4.48598  0.000196833
1790    0.083195    0.715503    -5.59867  0.000167983
1800   0.0811463    0.714868    -5.79053  0.000286255
1810   0.0774699    0.713727    -6.48058  -1.07549e-06
1820   0.0811678    0.714874    -7.24954  -0.00045153
1830   0.0865005    0.716529    -6.17585  -0.000156525
1840   0.0842983    0.715846    -5.59961  0.000153884
1850   0.0834228    0.715574    -5.59957  5.05265e-05
1860   0.0832878    0.715532    -4.98598  0.00021411
1870   0.0791406    0.714245    -5.21579  0.000340787
1880    0.076472    0.713417    -5.94496  0.000200204
1890   0.0751365    0.713003    -6.44342  2.18969e-05
1900   0.0760341    0.713281    -7.25018  5.94102e-05
1910   0.0739483    0.712634    -6.02183  -4.52921e-05
1920   0.0769399    0.713562    -6.21496  0.00033659
1930   0.0672165    0.710545    -6.29004  0.000419068
1940   0.0685586    0.710962    -4.87112  -0.000201914
1950   0.0712548    0.711798    -4.91113  -0.000104702
1960   0.0706526    0.711611    -4.83391  8.28821e-05
1970   0.0695972    0.711284    -6.71455  0.000196007
1980   0.0667325    0.710395    -5.94646  0.00012853
1990   0.0670266    0.710486    -6.40824  8.37658e-05
2000   0.0650572    0.709875    -6.63775  0.000144318
2010   0.0641402     0.70959     -5.9079  -1.42042e-05
2020   0.0653413    0.709963    -5.64004  9.9875e-07
2030   0.0641202    0.709584    -5.48538  -8.25748e-05
2040   0.0669928    0.710476    -6.02412  -0.000150869
2050   0.0671376    0.710521    -4.98684  -0.000387212
2060    0.074737    0.712879    -6.21695  -0.000128779
2070   0.0697132     0.71132    -5.17832  0.000258952
2080    0.069558    0.711272    -6.33125  -0.000266932
2090   0.0750518    0.712976    -3.79915  -0.000374199
2100   0.0770419    0.713594    -5.94829  0.000405431
2110   0.0669432     0.71046    -4.52637  0.000459271
2120   0.0678565    0.710744    -5.14112  -0.000237246
2130   0.0716881    0.711933     -4.3362  -0.000222264
2140   0.0723018    0.712123    -5.87231  5.39262e-05
2150   0.0706096    0.711598    -4.37528   0.0002003
2160   0.0682958     0.71088    -4.75857  6.19549e-05
2170   0.0693705    0.711213    -4.56736  2.36832e-05
2180   0.0678222    0.710733    -5.48894  7.00224e-05
2190   0.0679701    0.710779    -5.48823  0.000186461
2200   0.0640929    0.709576    -5.87119  -0.000100208
2210   0.0699742    0.711401    -5.06687  -0.000193011
2220   0.0679531    0.710774     -4.4526  8.0578e-06
2230   0.0698131    0.711351    -2.84156  0.000265213
2240   0.0626489    0.709128    -6.06301  6.26754e-05
2250   0.0685595    0.710962    -5.79596  -0.000420058
2260     0.07105    0.711735    -6.64153  -0.000186979
2270   0.0722991    0.712122    -5.68125  -0.000109389
2280   0.0732378    0.712414    -5.49014  -0.000101802
2290   0.0743352    0.712754     -5.7588  7.04739e-05
2300   0.0718283    0.711976    -5.45163  9.39842e-05
2310   0.0724555    0.712171    -5.75827  1.58176e-05
2320    0.071512    0.711878    -6.56439  1.57408e-05
2330   0.0721407    0.712073    -6.87112  0.00020515
2340    0.067409    0.710605    -5.91139  0.000110628
2350   0.0699281    0.711387    -4.72235  -0.00022068
2360   0.0718226    0.711974    -4.95373  -0.000134244
2370    0.072613     0.71222    -4.45485  -0.000102973
2380   0.0738821    0.712613    -5.26127  0.000309449
2390    0.066424    0.710299    -5.45178  0.000174619
2400   0.0703897     0.71153    -5.45208  -0.000102618
2410   0.0684764    0.710936    -5.98969  0.000111876
2420   0.0681521    0.710835    -5.26067  -0.000127137
2430   0.0710191    0.711725    -6.37468  0.000312081
2440   0.0619105    0.708899    -5.45129  -1.58083e-05
2450   0.0713353    0.711823    -5.18421  -0.000727509
2460   0.0764607    0.713414    -5.41503  -7.85589e-06
2470   0.0714924    0.711872    -5.41495  0.000304666
2480   0.0703674    0.711523    -4.60902  -0.00012853
2490    0.074063     0.71267    -4.60958  -3.19332e-05
2500   0.0710061    0.711721    -4.03379  0.000104577
2510   0.0719714    0.712021    -3.22726  3.25188e-05
2520   0.0703557    0.711519    -4.07148  0.000315355
2530   0.0656643    0.710063    -2.45894  0.000194557
2540   0.0664645    0.710312    -2.61295  -0.000209837
2550   0.0698611    0.711366    -4.34126  0.000382372
2560   0.0588171    0.707939    -3.99408  0.000463621
2570   0.0605886    0.708488    -4.72415  -0.000307499
2580   0.0649671    0.709847    -4.26498  0.000132064
2590   0.0579474    0.707669    -3.38101  0.000229544
2600   0.0603762    0.708422    -4.03402  0.000157246
2610   0.0548025    0.706693    -3.38086  0.000279878
2620   0.0547786    0.706685     -3.4964  -0.000153346
2630   0.0578694    0.707645    -6.02989  -0.000252008
2640   0.0598188    0.708249     -4.2264  2.66606e-05
2650   0.0573362    0.707479    -3.76558  0.000166312
2660   0.0564926    0.707217    -4.41825  -0.000137999
2670   0.0600962    0.708336    -5.76232  -3.90593e-05
2680   0.0572737     0.70746    -5.57058  6.7804e-05
2690   0.0587401    0.707915    -5.03349  2.06493e-06
2700   0.0572324    0.707447    -5.45538  8.46876e-05
2710   0.0570463    0.707389    -6.10804  0.000250961
2720   0.0522132    0.705889    -5.68533  0.000209837
2730   0.0528496    0.706087    -5.10921  -0.000171892
2740   0.0556511    0.706956    -5.03297  -0.000122268
2750   0.0552949    0.706846    -5.07152  0.000310966
2760   0.0494317    0.705026    -5.41668  0.000227931
2770   0.0507363    0.705431     -4.1116  -0.000339788
2780   0.0562275    0.707135     -4.3821  7.00224e-05
2790   0.0493359    0.704996    -5.14854  0.000203594
2800   0.0521556    0.705871    -4.45875  -0.000307595
2810   0.0554878    0.706905    -4.99648  -0.000215887
2820   0.0564734    0.707211     -4.3443  0.000179267
2830   0.0519024    0.705793    -5.03439  0.000128751
2840   0.0538983    0.706412    -4.91994  -9.00563e-05
2850   0.0537036    0.706352    -3.65278  0.000180209
2860   0.0502942    0.705294    -5.64944  2.66023e-06
2870   0.0536504    0.706335    -2.73251  0.000147344
2880   0.0473473    0.704379    -3.61412  0.000104568
2890    0.051559    0.705686    -3.00127  -0.000124045
2900   0.0498282    0.705149    -3.76821  0.000156285
2910   0.0484333    0.704716    -3.00094  3.73306e-05
2920   0.0490816    0.704918    -2.46422  -4.78949e-05
2930   0.0493912    0.705014    -3.23205  0.000217136
2940   0.0447389     0.70357    -3.69189  0.000337377
2950   0.0426437     0.70292    -2.92473  0.000209808
2960   0.0405427    0.702268    -2.65623  1.2831e-05
2970    0.042387     0.70284    -3.15589  -0.000115862
2980   0.0428599    0.702987    -2.92597  -2.15514e-05
2990   0.0428181    0.702974    -2.27312  -0.00015108
3000   0.0458815    0.703925    -2.84992  -9.94297e-05
3010   0.0448067    0.703591    -3.15698  0.000150897
3020   0.0428636    0.702988    -5.26832  -4.80294e-05
3030   0.0457673    0.703889    -4.46235  0.000221208
3040   0.0384394    0.701615    -3.65555  0.000438363
3050       0.037    0.701168    -3.27154  -7.34126e-05
3060   0.0399077    0.702071    -3.57871  -0.000282519
3070   0.0426504    0.702922      -3.925  0.00025778
3080   0.0347521    0.700471    -3.69317  0.00020538
3090   0.0385428    0.701647     -3.6554  -0.000467213
3100   0.0440964    0.703371    -3.31058  -0.000301919
3110   0.0445812    0.703521    -3.34999  0.00044304
3120   0.0352356    0.700621    -3.11839  0.000593073
3130   0.0327197     0.69984    -2.77379  0.000234375
3140   0.0305481    0.699166    -3.00326  0.000305598
3150   0.0266077    0.697944    -3.42552  0.000456399
3160   0.0214201    0.696334    -2.65776  -0.000249751
3170   0.0316028    0.699494    -2.50637  -0.000293612
3180   0.0272923    0.698156    -3.35041  0.000342986
3190    0.024743    0.697365    -2.39042  -2.88599e-05
3200   0.0278695    0.698335    -1.93077  0.000104923
3210   0.0226446    0.696714    -3.46505  0.000558854
3220   0.0166924    0.694867    -2.27428  0.000212516
3230   0.0183943    0.695395    -2.92856  7.07907e-05
3240   0.0152766    0.694427    -3.81051  -0.000117274
3250   0.0207397    0.696123    -3.35119  4.43318e-05
3260     0.01439    0.694152    -2.19935  0.000339721
3270   0.0139453    0.694014    -2.39184  -3.63221e-05
3280   0.0151164    0.694378    -2.27649  8.74917e-06
3290   0.0137703     0.69396    -3.46617  -1.84972e-05
3300   0.0154864    0.694493     -1.3939  -0.00023497
3310   0.0184697    0.695418    -2.27747  -0.00015422
3320   0.0185708     0.69545    -3.73573  0.000315922
3330   0.0121513    0.693458    -3.15941  0.000334583
3340   0.0118791    0.693373    -2.96737  0.000399649
3350  0.00415832    0.690977    -3.04406  0.000145519
3360  0.00896875     0.69247    -3.27507  -0.000299451
3370   0.0101473    0.692836    -4.58014  0.000265069
3380  0.00366737    0.690825    -4.27252  9.39262e-06
3390  0.00995949    0.692777    -3.00817  -0.000172602
3400  0.00711941    0.691896    -4.35082  0.000495247
3410  5.45504e-05    0.689704    -4.69523  0.000303648
3420  0.00104645    0.690012    -4.15893  -0.000182024
3430  0.00369502    0.690834    -5.27237  0.000195047
3440  -0.00285449    0.688801    -3.50592  0.000148804
3450  0.000718952     0.68991    -3.89098  4.84423e-05
3460  -0.00382333      0.6885      -2.662  1.09677e-05
3470  0.000499598    0.689842      -3.545  -0.000145778
3480  -0.000907766    0.689405    -4.69669  0.000233731
3490  -0.00417503    0.688391    -5.34947  0.000429412
3500   -0.009496     0.68674    -5.04215  2.10999e-05
3510  -0.00459703     0.68826    -4.54354  -0.000220343
3520  -0.00508913    0.688108    -4.12157  -8.14319e-05
3530  -0.00296839    0.688766    -5.38828  0.000554225
3540  -0.0161736    0.684668    -5.04117  0.000152107
3550  -0.00601054    0.687822    -5.27398  -0.000342592
3560  -0.00932179    0.686794      -3.776  0.000162508
3570  -0.00926071    0.686813    -3.89181  5.97654e-05
3580  -0.0105171    0.686423    -2.77848  0.000229467
3590  -0.0138501    0.685389    -3.66106  -0.000138028
3600  -0.00775654     0.68728    -4.85217  -9.04789e-05
3610  -0.0120405    0.685951    -3.92991  0.000135646
3620  -0.0104695    0.686438    -4.92912  4.17196e-05
3630  -0.0128749    0.685692    -4.50648  -0.000290846
3640  -0.00465254    0.688243    -4.00847  0.000156103
3650  -0.0159969    0.684723    -2.81744  0.000459904
3660  -0.0138506    0.685389    -3.12427  -0.000339068
3670  -0.00921557    0.686827    -3.70111  -0.000339913
3680  -0.00705237    0.687498    -2.85712  -6.36165e-05
3690  -0.00794324    0.687222    -2.62686  0.000242663
3700  -0.0119056    0.685992    -3.12514  -0.000188852
3710  -0.00416619    0.688394    -3.31872  -5.38782e-05
3720  -0.0108281    0.686327    -3.12585  0.000445691
3730    -0.01308    0.685628    -3.85442  -1.56545e-05
3740   -0.010515    0.686424    -3.97048  0.00010063
3750  -0.0150926    0.685003    -3.77769  7.13766e-05
3760  -0.0119425    0.685981    -4.39252  0.000343668
3770   -0.021966    0.682871    -3.85397  3.85121e-06
3780  -0.0120195    0.685957    -4.04747  -0.000461326
3790  -0.0127395    0.685734    -3.70201  0.000286371
3800   -0.017747     0.68418     -3.6251  0.000257664
3810  -0.0178927    0.684135    -2.85835  -0.000171056
3820  -0.0143258    0.685241    -3.51076  -0.000151723
3830  -0.0148583    0.685076     -3.3957  -0.00026044
3840  -0.00911703    0.686858     -4.3168  -0.00013313
3850  -0.0121957    0.685902     -2.0906  0.00027886
3860  -0.0146942    0.685127    -3.70265  0.000132035
3870  -0.0148364    0.685083    -4.35535  6.35782e-05
3880  -0.0159658    0.684732    -3.51083  2.41828e-05
3890    -0.01532    0.684933    -4.23978  -0.00016369
3900   -0.012692    0.685748    -4.01053  -8.47837e-05
3910  -0.0136244    0.685459    -3.55006  0.000371548
3920   -0.020123    0.683442    -4.47056  0.00011372
3930  -0.0158988    0.684753    -4.01016  2.52968e-05
3940  -0.0206289    0.683285    -3.43448  -0.000215023
3950  -0.0115983    0.686088    -3.55126  2.54121e-05
3960  -0.0211371    0.683128    -2.97277  -6.06966e-06
3970  -0.0114769    0.686125    -3.58865  -0.000506205
3980   -0.011013    0.686269    -4.08767  6.4212e-05
3990  -0.0127612    0.685727    -3.20422  0.000175003
4000  -0.0145131    0.685183    -3.39717  -0.00011687
4010  -0.0104237    0.686452     -3.8963  -0.000288445
4020  -0.00874421    0.686973    -3.78099  0.00013531
4030  -0.0131299    0.685612    -3.20426  0.000155517
4040  -0.0118545    0.686008    -2.89765  -1.6077e-05
4050  -0.0128084    0.685712    -2.59078  -3.66679e-05
4060  -0.0111212    0.686236     -2.8597  0.000197688
4070  -0.0167622    0.684485    -3.20475  -0.000159291
4080  -0.00793536    0.687224    -3.16691  -0.00013821
4090   -0.013998    0.685343    -2.82138  2.3885e-05
4100  -0.00841306    0.687076    -3.39769  -0.000559526
4110  -0.00280743    0.688816    -3.55152  -8.9019e-05
4120  -0.00663268    0.687629    -4.81744  -0.000172391
4130  0.000640392    0.689886    -3.59037  -0.000130777
4140  -0.00401714     0.68844     -4.1656  0.000270361
4150  -0.00476683    0.688208    -3.05152  -2.82644e-05
4160  -0.00345185    0.688616     -4.0507  0.000179037
4170  -0.00834756    0.687097     -3.1683  -0.000153001
4180  -0.000391841    0.689565    -3.47637  -0.000110849
4190  -0.00613059    0.687784    -3.85944  0.000324979
4200  -0.00689141    0.687548    -5.77874  0.000170038
4210  -0.00953135    0.686729    -5.01068  3.45934e-05
4220  -0.00758328    0.687334    -4.01301  0.000118878
4230  -0.0119089    0.685991    -4.43583  0.000580108
4240  -0.0191854    0.683733    -5.04905  -1.68165e-05
4250  -0.0115726    0.686096    -4.05182  -0.000162921
4260   -0.015927    0.684745    -3.85963  -1.69798e-05
4270   -0.011233    0.686201    -3.55332  7.88197e-05
4280  -0.0175034    0.684255    -4.09003  0.00014162
4290  -0.0140654    0.685322    -4.55137  0.000142907
4300  -0.0203615    0.683368    -2.82333  0.000216848
4310  -0.0184023    0.683976    -2.51672  9.07862e-05
4320  -0.0221773    0.682805    -3.70689  2.66606e-05
4330  -0.0189355    0.683811    -3.36105  -1.52799e-05
4340  -0.0218717      0.6829    -2.36364  0.000123075
4350   -0.021397    0.683047    -1.59581  0.000188045
4360  -0.0256326    0.681733    -2.74709  1.67108e-05
4370  -0.0217312    0.682943    -2.36431  0.00025388
4380  -0.0307102    0.680157    -3.36105  0.000296657
4390  -0.0276644    0.681102    -2.44037  -4.62814e-05
4400  -0.0297845    0.680444    -2.82396  0.000115142
4410  -0.0299672    0.680388    -3.43812  -7.91077e-05
4420  -0.0282024    0.680935     -2.0184  -0.000382804
4430  -0.0223111    0.682763    -2.78759  -0.000123104
4440  -0.0257403    0.681699    -3.05605  0.00049591
4450  -0.0322293    0.679686    -2.24892  9.40516e-05
4460  -0.0276214    0.681116    -2.05808  0.000204612
4470  -0.0363216    0.678416    -2.94003  8.37657e-05
4480  -0.0292967    0.680596    -2.97985  -0.000133735
4490  -0.0336469    0.679246    -3.63218  0.000205179
4500  -0.0334002    0.679322     -3.1713  0.000184329
4510  -0.0373334    0.678102    -2.13447  -0.000112914
4520   -0.031142    0.680023     -3.9398  -0.000123449
4530  -0.0348645    0.678868    -4.01548  6.31939e-05
4540  -0.0324058    0.679631     -3.8249  -4.68481e-05
4550  -0.0339275    0.679159    -3.59446  0.000396778
4560  -0.0403414    0.677168    -3.24836  0.000141966
4570  -0.0367668    0.678278    -3.24821  -7.95014e-05
4580  -0.0387514    0.677662    -4.09269  5.37055e-05
4590  -0.0378409    0.677944    -4.20895  -0.000102455
4600  -0.0367023    0.678298    -3.59442  9.22941e-06
4610  -0.0380255    0.677887     -3.7862  0.000199935
4620   -0.040701    0.677057    -3.09528  0.000358006
4630  -0.0451856    0.675665    -3.67085  -6.90043e-05
4640  -0.0393209    0.677485    -4.63143  -0.000113471
4650  -0.0429162    0.676369    -4.55381  8.87213e-05
4660  -0.0410953    0.676934    -3.44104  0.000350256
4670  -0.0499213    0.674196    -3.51687  0.00033924
4680  -0.0478801    0.674829    -3.05696  -0.000249933
4690  -0.0449227    0.675747    -3.05812  0.000170864
4700  -0.0512974    0.673769    -3.93976  0.000227671
4710  -0.0494761    0.674334    -4.43924  0.000172141
4720  -0.0547402      0.6727    -5.32153  -0.000183128
4730  -0.0458135     0.67547    -3.90238  -0.000125101
4740  -0.0522382    0.673477    -3.93965  9.15352e-05
4750  -0.0476442    0.674902    -3.97929  -0.000287379
4760  -0.0464906     0.67526    -3.24997  -8.09805e-05
4770  -0.0460246    0.675405    -3.86472  0.000173188
4780  -0.0499544    0.674185    -4.43995  -4.67712e-05
4790  -0.0450892    0.675695    -3.55789  -9.26109e-05
4800  -0.0481022     0.67476    -3.82659  0.00027863
4810  -0.0506618    0.673966    -3.71075  0.00016321
4820  -0.0513664    0.673747    -2.52114  -1.1256e-05
4830  -0.0504367    0.674036    -4.13338  -1.11215e-05
4840  -0.0511439    0.673816    -4.13353  0.000176338
4850  -0.0539635    0.672941    -4.55605  -0.000105221
4860  -0.0490395    0.674469    -3.40478  -9.30719e-05
4870   -0.052102    0.673519    -4.47963  5.91123e-05
4880  -0.0502218    0.674102    -3.51975    9.53e-05
4890   -0.054008    0.672927    -3.67366  0.000331922
4900  -0.0568602    0.672042    -3.75057  3.66967e-05
4910   -0.054742      0.6727    -3.98094  -9.33887e-05
4920  -0.0549924    0.672622    -4.05752  8.46395e-05
4930  -0.0564347    0.672174    -3.32816  0.000192261
4940  -0.0588377    0.671429     -4.3645  -0.000428922
4950  -0.0478563    0.674836    -3.67516  -0.000153682
4960   -0.055764    0.672383    -3.52107  0.000300047
4970  -0.0538572    0.672974    -3.67486  0.000242068
4980  -0.0606054     0.67088     -3.7127  0.000519497
4990  -0.0642472     0.66975    -3.59738  0.000796926
