Time   Number   
ps   
0          25          30
10          24          29
20          25          24
30          22          31
40          26          24
50          29          26
60          26          26
70          27          24
80          25          27
90          27          30
100          29          22
110          23          28
120          29          22
130          28          29
140          22          34
150          28          26
160          28          29
170          27          28
180          26          22
190          21          30
200          23          27
210          25          27
220          26          30
230          24          22
240          27          29
250          28          27
260          27          26
270          27          30
280          26          29
290          29          26
300          30          27
310          24          27
320          24          27
330          27          24
340          29          24
350          25          26
360          25          29
370          23          27
380          30          22
390          24          26
400          25          33
410          22          28
420          27          26
430          23          27
440          24          26
450          25          24
460          25          29
470          26          26
480          28          24
490          26          25
500          26          26
510          23          30
520          31          24
530          27          27
540          26          25
550          26          29
560          27          25
570          27          25
580          27          33
590          24          33
600          25          25
610          24          29
620          26          30
630          27          26
640          26          23
650          22          30
660          25          25
670          25          23
680          26          23
690          24          26
700          30          22
710          28          25
720          25          28
730          25          32
740          27          21
750          26          24
760          28          26
770          26          31
780          26          24
790          28          24
800          27          25
810          25          27
820          24          29
830          29          26
840          26          25
850          19          28
860          27          26
870          28          23
880          29          27
890          26          20
900          26          27
910          27          27
920          24          29
930          28          23
940          25          26
950          22          27
960          32          26
970          28          20
980          26          24
990          26          30
1000          26          26
1010          30          20
1020          26          27
1030          24          30
1040          30          23
1050          26          21
1060          29          23
1070          30          23
1080          33          27
1090          27          28
1100          28          25
1110          23          25
1120          23          29
1130          29          27
1140          27          29
1150          26          31
1160          30          23
1170          26          25
1180          28          28
1190          26          31
1200          31          26
1210          23          26
1220          26          25
1230          25          32
1240          29          27
1250          22          30
1260          24          30
1270          27          28
1280          29          28
1290          24          28
1300          27          27
1310          22          26
1320          27          29
1330          27          28
1340          28          29
1350          29          24
1360          24          25
1370          26          26
1380          28          27
1390          27          27
1400          25          29
1410          26          26
1420          25          28
1430          25          27
1440          26          31
1450          25          27
1460          28          30
1470          30          28
1480          27          28
1490          28          24
1500          28          30
1510          22          34
1520          27          30
1530          30          25
1540          27          32
1550          24          33
1560          29          32
1570          27          31
1580          26          28
1590          29          24
1600          22          30
1610          25          29
1620          29          28
1630          27          28
1640          31          24
1650          28          27
1660          27          27
1670          26          29
1680          25          26
1690          27          28
1700          27          27
1710          26          33
1720          26          26
1730          28          27
1740          26          30
1750          28          26
1760          26          25
1770          29          26
1780          30          22
1790          26          30
1800          27          28
1810          25          28
1820          27          28
1830          29          22
1840          29          26
1850          26          27
1860          30          22
1870          28          31
1880          29          25
1890          29          23
1900          28          27
1910          27          28
1920          28          29
1930          25          29
1940          31          25
1950          26          28
1960          30          26
1970          25          31
1980          29          28
1990          27          28
2000          29          26
2010          27          28
2020          24          32
2030          27          35
2040          26          27
2050          29          31
2060          27          28
2070          29          29
2080          27          28
2090          29          22
2100          25          31
2110          26          28
2120          28          31
2130          25          30
2140          26          26
2150          26          27
2160          22          26
2170          26          28
2180          26          26
2190          28          25
2200          28          23
2210          26          27
2220          27          28
2230          27          27
2240          26          30
2250          27          29
2260          27          31
2270          26          28
2280          26          28
2290          26          32
2300          26          28
2310          25          28
2320          28          30
2330          25          31
2340          30          27
2350          26          26
2360          27          28
2370          26          28
2380          27          25
2390          25          27
2400          26          29
2410          24          32
2420          25          31
2430          24          25
2440          26          27
2450          27          27
2460          27          29
2470          26          28
2480          24          31
2490          29          26
2500          26          26
2510          26          28
2520          28          23
2530          25          24
2540          27          29
2550          26          28
2560          25          26
2570          27          30
2580          28          28
2590          27          23
2600          28          26
2610          25          33
2620          27          28
2630          26          28
2640          27          26
2650          30          26
2660          31          23
2670          27          28
2680          28          27
2690          30          19
2700          27          28
2710          24          31
2720          26          25
2730          25          26
2740          24          28
2750          25          29
2760          27          30
2770          25          29
2780          23          32
2790          26          27
2800          27          24
2810          29          23
2820          25          29
2830          26          25
2840          27          32
2850          23          33
2860          28          26
2870          25          33
2880          24          21
2890          24          30
2900          27          26
2910          29          28
2920          27          26
2930          24          28
2940          26          25
2950          26          25
2960          26          26
2970          25          27
2980          26          25
2990          26          30
3000          29          27
3010          26          24
3020          29          25
3030          24          30
3040          29          28
3050          21          26
3060          25          22
3070          27          31
3080          26          26
3090          25          23
3100          24          26
3110          28          25
3120          30          19
3130          29          24
3140          29          24
3150          24          27
3160          27          25
3170          32          18
3180          28          27
3190          27          26
3200          28          25
3210          27          27
3220          26          28
3230          29          22
3240          27          29
3250          31          25
3260          27          23
3270          27          28
3280          26          25
3290          29          28
3300          29          23
3310          25          27
3320          29          20
3330          29          23
3340          25          24
3350          28          24
3360          28          24
3370          28          27
3380          27          25
3390          25          26
3400          24          28
3410          27          27
3420          23          31
3430          28          23
3440          26          25
3450          22          32
3460          25          28
3470          27          27
3480          23          25
3490          22          29
3500          28          24
3510          25          31
3520          24          26
3530          25          29
3540          25          30
3550          27          24
3560          25          25
3570          25          24
3580          21          29
3590          27          28
3600          25          34
3610          27          24
3620          26          31
3630          25          26
3640          28          23
3650          26          28
3660          27          25
3670          26          28
3680          24          37
3690          28          25
3700          26          32
3710          26          34
3720          24          31
3730          28          22
3740          28          26
3750          30          26
3760          27          28
3770          24          29
3780          26          33
3790          29          25
3800          25          32
3810          28          28
3820          27          25
3830          28          29
3840          31          26
3850          29          23
3860          31          27
3870          23          32
3880          28          35
3890          28          30
3900          27          31
3910          28          31
3920          28          27
3930          28          25
3940          30          26
3950          30          33
3960          28          27
3970          28          31
3980          30          28
3990          27          27
4000          30          28
4010          31          22
4020          28          25
4030          27          28
4040          27          30
4050          29          29
4060          27          25
4070          28          31
4080          26          30
4090          27          31
4100          25          35
4110          27          31
4120          30          30
4130          29          35
4140          29          32
4150          25          37
4160          27          29
4170          28          27
4180          25          29
4190          26          33
4200          30          29
4210          25          31
4220          27          27
4230          27          25
4240          26          26
4250          28          31
4260          28          30
4270          28          30
4280          23          26
4290          27          26
4300          24          28
4310          22          31
4320          25          29
4330          29          30
4340          27          26
4350          25          29
4360          29          30
4370          28          26
4380          28          28
4390          30          28
4400          26          30
4410          23          34
4420          25          35
4430          26          25
4440          27          23
4450          29          24
4460          28          26
4470          26          26
4480          28          27
4490          29          26
4500          27          26
4510          27          32
4520          29          22
4530          25          26
4540          29          28
4550          28          29
4560          29          24
4570          27          26
4580          26          28
4590          29          25
4600          30          26
4610          28          29
4620          27          26
4630          29          26
4640          29          29
4650          28          29
4660          30          26
4670          30          29
4680          29          25
4690          25          26
4700          26          29
4710          24          29
4720          27          29
4730          27          30
4740          23          41
4750          28          29
4760          23          31
4770          27          30
4780          28          29
4790          26          29
4800          25          32
4810          26          28
4820          26          24
4830          29          31
4840          29          30
4850          27          32
4860          28          27
4870          26          31
4880          24          32
4890          26          32
4900          28          28
4910          27          31
4920          25          27
4930          28          30
4940          29          29
4950          28          28
4960          28          34
4970          26          28
4980          27          30
4990          28          31
5000          31          30
5010          29          27
5020          29          29
5030          29          29
5040          31          29
5050          26          31
5060          30          31
5070          28          29
5080          31          29
5090          27          34
5100          26          28
5110          29          25
5120          27          26
5130          28          34
5140          30          30
5150          29          27
5160          27          29
5170          28          23
5180          26          30
5190          29          24
5200          27          29
5210          25          28
5220          24          30
5230          23          30
5240          26          27
5250          26          24
5260          27          26
5270          30          23
5280          27          29
5290          26          35
5300          25          27
5310          27          25
5320          27          29
5330          28          25
5340          27          27
5350          23          35
5360          25          28
5370          27          31
5380          23          34
5390          28          26
5400          28          31
5410          27          29
5420          26          29
5430          27          26
5440          27          29
5450          25          26
5460          28          25
5470          24          24
5480          28          31
5490          26          36
5500          28          28
5510          30          25
5520          28          27
5530          25          22
5540          28          30
5550          25          27
5560          23          32
5570          25          27
5580          28          26
5590          29          26
5600          30          25
5610          23          33
5620          23          29
5630          23          30
5640          25          30
5650          29          26
5660          28          21
5670          26          28
5680          26          29
5690          27          24
5700          26          29
5710          25          30
5720          29          30
5730          26          31
5740          28          28
5750          27          28
5760          33          27
5770          30          26
5780          30          29
5790          27          29
5800          27          32
5810          26          30
5820          29          26
5830          28          28
5840          29          29
5850          26          34
5860          26          32
5870          26          26
5880          22          33
5890          29          25
5900          24          30
5910          30          29
5920          29          25
5930          30          31
5940          27          27
5950          27          26
5960          27          25
5970          28          25
5980          28          28
5990          26          30
6000          29          26
6010          27          24
6020          27          25
6030          28          31
6040          24          24
6050          28          25
6060          25          25
6070          27          27
6080          28          29
6090          25          28
6100          25          27
6110          25          29
6120          26          26
6130          29          25
6140          24          31
6150          28          25
6160          27          24
6170          25          27
6180          27          27
6190          26          32
6200          27          26
6210          26          29
6220          27          26
6230          25          31
6240          23          35
6250          26          29
6260          27          27
6270          20          31
6280          25          29
6290          25          31
6300          29          26
6310          27          27
6320          29          28
6330          23          30
6340          25          28
6350          25          25
6360          28          30
6370          29          24
6380          24          32
6390          26          30
6400          27          28
6410          27          29
6420          29          25
6430          28          30
6440          30          30
6450          25          31
6460          28          28
6470          27          32
6480          28          26
6490          29          26
6500          27          29
6510          30          24
6520          28          27
6530          27          26
6540          24          27
6550          26          28
6560          30          26
6570          29          26
6580          26          28
6590          28          26
6600          27          25
6610          23          28
6620          25          28
6630          26          25
6640          31          25
6650          28          26
6660          26          27
6670          26          26
6680          25          32
6690          30          21
6700          26          24
6710          28          24
6720          27          30
6730          28          22
6740          28          26
6750          28          27
6760          26          31
6770          23          28
6780          26          26
6790          23          33
6800          27          26
6810          24          28
6820          29          26
6830          28          28
6840          28          25
6850          27          29
6860          28          22
6870          28          19
6880          26          24
6890          29          25
6900          24          25
6910          28          23
6920          28          23
6930          25          26
6940          24          25
6950          25          23
6960          24          26
6970          29          17
6980          28          22
6990          24          25
7000          28          22
7010          28          22
7020          27          20
7030          28          21
7040          25          23
7050          23          27
7060          25          25
7070          24          22
7080          28          22
7090          28          23
7100          28          31
7110          27          24
7120          30          23
7130          25          27
7140          25          27
7150          28          22
7160          23          31
7170          26          26
7180          27          25
7190          27          27
7200          29          27
7210          22          32
7220          25          27
7230          25          28
7240          26          24
7250          28          27
7260          28          24
7270          24          23
7280          27          27
7290          29          28
7300          26          32
7310          28          31
7320          27          28
7330          28          24
7340          32          23
7350          30          29
7360          28          28
7370          26          27
7380          23          35
7390          27          27
7400          28          32
7410          30          26
7420          27          27
7430          25          31
7440          27          28
7450          30          27
7460          27          29
7470          29          33
7480          28          30
7490          29          29
7500          28          28
7510          29          27
7520          27          30
7530          28          24
7540          27          28
7550          26          33
7560          23          35
7570          27          27
7580          28          32
7590          30          29
7600          25          28
7610          27          32
7620          28          31
7630          29          24
7640          32          21
7650          26          26
7660          29          26
7670          27          28
7680          28          31
7690          26          26
7700          27          35
7710          31          27
7720          31          26
7730          27          33
7740          23          32
7750          31          25
7760          24          25
7770          27          25
7780          30          29
7790          27          29
7800          26          26
7810          28          28
7820          24          34
7830          30          23
7840          30          24
7850          29          27
7860          27          35
7870          27          32
7880          26          28
7890          30          27
7900          25          29
7910          23          33
7920          31          29
7930          27          29
7940          27          30
7950          28          26
7960          24          27
7970          24          30
7980          25          33
7990          28          28
8000          28          34
8010          27          30
8020          26          28
8030          30          30
8040          29          28
8050          29          30
8060          24          36
8070          28          30
8080          27          33
8090          26          28
8100          31          30
8110          27          31
8120          28          27
8130          23          29
8140          26          33
8150          27          25
8160          26          27
8170          28          23
8180          27          33
8190          27          27
8200          29          27
8210          20          26
8220          28          28
8230          27          29
8240          25          32
8250          25          26
8260          25          25
8270          27          27
8280          26          30
8290          26          34
8300          29          27
8310          27          29
8320          27          26
8330          27          33
8340          24          29
8350          26          29
8360          30          19
8370          30          25
8380          26          28
8390          26          24
8400          22          30
8410          23          32
8420          25          29
8430          24          28
8440          26          28
8450          21          31
8460          24          26
8470          25          24
8480          23          29
8490          26          29
8500          22          33
8510          26          30
8520          27          27
8530          24          32
8540          24          25
8550          19          35
8560          25          27
8570          24          34
8580          23          32
8590          25          31
8600          24          34
8610          24          32
8620          24          34
8630          20          38
8640          27          36
8650          30          27
8660          26          29
8670          29          27
8680          29          29
8690          25          37
8700          27          30
8710          26          32
8720          26          30
8730          25          34
8740          24          34
8750          27          27
8760          23          34
8770          24          32
8780          26          34
8790          27          22
8800          25          31
8810          24          36
8820          29          30
8830          29          28
8840          27          31
8850          29          33
8860          25          29
8870          27          30
8880          27          28
8890          29          31
8900          23          30
8910          26          35
8920          27          33
8930          27          33
8940          23          37
8950          24          29
8960          22          36
8970          24          32
8980          30          22
8990          27          25
9000          21          32
9010          28          31
9020          27          30
9030          24          31
9040          26          32
9050          27          29
9060          25          30
9070          26          30
9080          25          34
9090          28          28
9100          27          27
9110          29          22
9120          29          26
9130          24          37
9140          24          29
9150          27          28
9160          27          28
9170          25          32
9180          28          25
9190          24          34
9200          30          28
9210          25          33
9220          27          24
9230          28          22
9240          27          33
9250          23          30
9260          23          32
9270          29          20
9280          26          27
9290          21          29
9300          27          24
9310          22          32
9320          28          22
9330          25          30
9340          21          28
9350          24          27
9360          30          25
9370          27          26
9380          29          26
9390          27          29
9400          29          21
9410          24          24
9420          27          26
9430          29          27
9440          20          33
9450          24          27
9460          23          29
9470          26          33
9480          22          25
9490          25          25
9500          25          29
9510          24          23
9520          25          26
9530          26          22
9540          27          24
9550          23          25
9560          28          25
9570          23          29
9580          28          33
9590          29          26
9600          28          28
9610          29          27
9620          28          26
9630          30          24
9640          27          28
9650          29          24
9660          26          30
9670          30          27
9680          27          25
9690          32          20
9700          27          26
9710          31          30
9720          28          24
9730          31          28
9740          25          31
9750          26          28
9760          24          27
9770          26          26
9780          25          31
9790          26          29
9800          27          30
9810          27          25
9820          23          26
9830          30          29
9840          29          26
9850          30          31
9860          27          30
9870          29          24
9880          28          28
9890          27          26
9900          29          30
9910          28          29
9920          26          26
9930          28          26
9940          28          26
9950          29          26
9960          28          24
9970          30          28
9980          27          30
9990          32          27
10000          24          33
