Time   C(t)   
ps   
0           1           1  1.34856e-10   0.0230012
10    0.775027    0.787099    0.790042   0.0127475
20     0.74505    0.758731     1.82912  0.00249377
30    0.725152      0.7399     1.86288  0.00186847
40    0.707681    0.723367     1.35266  0.00177144
50    0.689723    0.706373    0.916467  0.00152552
60     0.67717    0.694494     2.44326  0.00125925
70    0.664538    0.682539    0.603655   0.0012457
80    0.652256    0.670917     2.53252  0.00114698
90    0.641598     0.66083     2.13006  0.00111227
100    0.630011    0.649865    0.127108  0.00107556
110    0.620087    0.640474     0.69021  0.000990379
120    0.610203     0.63112     2.61883  0.00101325
130    0.599822    0.621296     3.03655  0.000960103
140    0.591001    0.612948     2.65294  0.000869653
150    0.582429    0.604836     2.21549  0.000795025
160    0.575101    0.597901     2.21484  0.000793883
170    0.566552    0.589811     1.94047  0.000848997
180    0.558121    0.581832     1.77505  0.000836355
190    0.549824    0.573981     1.53839  0.000787264
200    0.542376    0.566932     3.10295  0.000771621
210    0.534392    0.559377    0.954745  0.000665733
220    0.529061    0.554332     2.15477  0.000673887
230    0.520914    0.546622   -0.175634  0.000700137
240    0.515058     0.54108    0.368652  0.000665164
250    0.507611    0.534033    0.386916  0.000720355
260    0.500651    0.527446     1.46073  0.000625291
270    0.495105    0.522198     1.18608  0.000608383
280    0.488484    0.515932     1.38609  0.000529303
290    0.484519     0.51218     1.47567  0.000551762
300    0.477448    0.505489    0.729395  0.000639135
310    0.471736    0.500083   -0.745934  0.000523126
320    0.466986    0.495588     1.09126  0.00053968
330    0.460943    0.489869  -0.0379492  0.000531076
340    0.456364    0.485536     1.08909  0.000564344
350    0.449656    0.479188      0.7788  0.000578015
360    0.444804    0.474596     1.65235  0.000496483
370    0.439726    0.469791    0.723031  0.00048282
380    0.435148    0.465458     1.15871  0.00047504
390    0.430225      0.4608     1.21272  0.000508383
400     0.42498    0.455836   0.0469525  0.000477096
410    0.420684     0.45177    0.501217  0.000450653
420    0.415967    0.447306    0.282088  0.000431944
430    0.412045    0.443595   -0.209913  0.000454524
440    0.406876    0.438704    0.882161  0.000418988
450    0.403665    0.435665     1.15434  0.000368798
460      0.3995    0.431723   -0.775467  0.000482909
470    0.394007    0.426525   -0.756936  0.000482811
480    0.389844    0.422585   -0.685001  0.000303158
490    0.387944    0.420787   -0.577623   0.0003316
500    0.383212    0.416309    -0.48666  0.000417277
510    0.379598    0.412889    -1.34242  0.000431143
520    0.374589    0.408149  -0.0323234  0.000451754
530    0.370563    0.404339   -0.998062  0.000394195
540    0.366705    0.400688    -1.27063  0.000379145
550     0.36298    0.397163    -1.32596  0.000345102
560    0.359803    0.394157      -1.217  0.000302058
570    0.356939    0.391446   -0.744912  0.000324671
580     0.35331    0.388012   -0.781191  0.000330321
590    0.350332    0.385194   -0.727395  0.000323015
600     0.34685    0.381898    -1.61942  0.000306706
610    0.344198    0.379389    -1.23814  0.000348482
620     0.33988    0.375302   -0.091434  0.000390205
630    0.336394    0.372004    -1.22016  0.000293754
640    0.334005    0.369743    -1.65797  0.000306506
650    0.330264    0.366202    -2.02206  0.000289987
660    0.328205    0.364254    -2.00458  0.000276564
670    0.324733    0.360968    -1.23974  0.000287224
680    0.322461    0.358818   -0.603708  0.000294985
690    0.318833    0.355385    -1.87774  0.000331815
700    0.315824    0.352538     -1.3689  0.00034067
710     0.31202    0.348937    -1.71451  0.000335318
720    0.309118    0.346191    -1.62427  0.000249994
730     0.30702    0.344205    -1.11548  0.000288109
740    0.303356    0.340738   -0.168613  0.000258136
750    0.301857     0.33932    -1.78922  0.000275083
760    0.297854    0.335532   -0.296619  0.000222673
770    0.297404    0.335105    -1.53562  0.000157116
780    0.294712    0.332558    -1.09877  0.000253159
790     0.29234    0.330314    -1.73617  0.00020372
800    0.290637    0.328702   -0.353365  0.000215462
810    0.288031    0.326236   -0.517277  0.000210783
820    0.286422    0.324713    -1.28169  0.000183636
830    0.284359     0.32276    -1.59247  0.000249614
840     0.28143    0.319988    -1.33771  0.000249068
850    0.279377    0.318046   -0.955109  0.000168504
860    0.278059    0.316799   -0.409668  0.000144254
870    0.276492    0.315316    -0.59195  0.000210415
880    0.273851    0.312817   0.0997086  0.000225268
890    0.271987    0.311052  -0.0828401  0.000210348
900    0.269644    0.308835   -0.483718  0.000214882
910    0.267689    0.306985   -0.556773  0.000220566
920    0.265233    0.304661     -0.3749  0.00023243
930     0.26304    0.302586  -0.0477703  0.000268199
940    0.259869    0.299585   -0.466272  0.000273894
950    0.257563    0.297402   -0.412032  0.000220519
960    0.255459    0.295411   -0.666818  0.000240815
970    0.252746    0.292844    0.351881  0.000211094
980    0.251237    0.291416   -0.831725  0.000183494
990    0.249076    0.289371   -0.631837  0.000265303
1000    0.245931    0.286394    -1.79661  0.000309685
1010    0.242883     0.28351   -0.285572  0.000221471
1020    0.241501    0.282203   -0.796317  0.000179131
1030      0.2393     0.28012    -1.63373  0.000260204
1040    0.236297    0.277278    -1.61548  0.000192536
1050    0.235449    0.276476    -1.23463  0.000176262
1060    0.232772    0.273942     -1.4345  0.000239672
1070    0.230656    0.271939     -1.6718  0.000206552
1080    0.228641    0.270032     -1.1989  0.000165901
1090    0.227338    0.268799    -1.25362  0.000180041
1100     0.22504    0.266625    -2.30944  0.000198338
1110    0.223371    0.265045   -0.708856  0.000189304
1120    0.221254    0.263042    -1.36386  0.00018867
1130    0.219598    0.261475    -1.72818  0.000164742
1140    0.217959    0.259924    -1.60108  0.000168274
1150    0.216232     0.25829    -2.27499  0.000179274
1160    0.214374    0.256531    -1.80191  0.000191373
1170    0.212405    0.254668   -0.509643  0.000222673
1180     0.20992    0.252316   -0.837093  0.000207181
1190    0.208261    0.250746    -1.38326  0.000166063
1200    0.206599    0.249173    -1.74776  0.000172851
1210    0.204804    0.247475    -1.12889  0.00016897
1220    0.203219    0.245975   -0.728719  0.000191854
1230    0.200967    0.243844   -0.801418  0.000159027
1240    0.200039    0.242965   -0.838461  0.000150871
1250     0.19795    0.240988   -0.929958  0.000209168
1260    0.195856    0.239006   -0.984269  0.000176303
1270    0.194424    0.237651    -1.67658  0.000149812
1280    0.192859    0.236171   -0.730088  0.000132891
1290    0.191766    0.235136   -0.821762  0.000151584
1300    0.189828    0.233302   -0.985371  0.000173511
1310    0.188296    0.231852   -0.130513  0.000138231
1320    0.187063    0.230686    -1.27756  0.00013314
1330    0.185633    0.229332    -3.00692  0.000136688
1340    0.184329    0.228099    -2.89805  0.000142447
1350    0.182784    0.226636    -1.42379  0.000153618
1360    0.181257    0.225191    -1.89731  0.000150717
1370     0.17977    0.223783    -1.33345  0.000181583
1380    0.177625    0.221754    -1.00547  0.000180871
1390    0.176152     0.22036    -1.13317  0.000158398
1400    0.174457    0.218756    -1.31588  0.000200298
1410    0.172146    0.216569    -1.88031  0.000191981
1420    0.170618    0.215123   -0.770348  0.000167258
1430    0.168801    0.213403    -1.26228  0.000144582
1440    0.167726    0.212386    -2.09971  0.000139484
1450    0.166011    0.210764     -1.5535  0.000129884
1460    0.165128    0.209928    -1.37163  0.000118124
1470    0.163649    0.208528    -1.15405  0.000156946
1480    0.161989    0.206957    -1.53661  0.000172747
1490    0.160194    0.205258   -0.935966  0.000197453
1500     0.15804     0.20322   -0.335555  0.000133746
1510    0.157519    0.202727    -1.17352  0.000143012
1520     0.15518    0.200514    -1.84638  0.00014102
1530    0.154699    0.200058    -2.06555  0.000111492
1540     0.15295    0.198403    -1.42866  0.000120576
1550    0.152287    0.197776    -1.93882  0.000105351
1560    0.150843    0.196409    -2.08475  0.00013675
1570    0.149552    0.195187    -1.44774  0.00011143
1580    0.148615      0.1943    -1.75751  0.000132926
1590    0.146894    0.192672    -1.81231  0.00012761
1600    0.146062    0.191885    -1.92166  8.7671e-05
1610     0.14514    0.191012    -1.17555  0.00013718
1620    0.143319    0.189289    -1.10269  0.000198048
1630    0.141179    0.187264    -1.06609  0.000108634
1640    0.141146    0.187233     -1.2852  8.20227e-05
1650    0.139539    0.185711   -0.648261  0.000138428
1660    0.138378    0.184613     -1.1945  0.000116246
1670    0.137214    0.183511    -1.54036  0.000112012
1680    0.136137    0.182493    -1.54057  9.08047e-05
1690    0.135398    0.181793    -1.24917  0.000115937
1700    0.133819    0.180298    -1.10361  0.000124106
1710    0.132916    0.179444    -1.08581  7.45326e-05
1720    0.132328    0.178888    -1.88701  0.000116748
1730    0.130581    0.177234     -1.2313  0.000118101
1740    0.129966    0.176652   -0.813435  7.63416e-05
1750    0.129054    0.175789   -0.777138  0.000117535
1760    0.127615    0.174428    -0.63165  0.000118924
1770    0.126675    0.173538   -0.431246  0.000102109
1780    0.125573    0.172495   -0.595229  9.4346e-05
1790    0.124788    0.171753   -0.959811  6.59537e-05
1800    0.124254    0.171247   -0.359258  0.000123464
1810    0.122319    0.169416    0.296264   0.0001788
1820    0.120678    0.167863   -0.377486  0.000111433
1830     0.12009    0.167307    0.114409  8.64524e-05
1840    0.118949    0.166227   -0.159245  9.35379e-05
1850     0.11822    0.165536    0.641195  7.87958e-05
1860    0.117373    0.164735    0.459091  0.000121722
1870    0.115785    0.163233    0.604739  0.000133544
1880    0.114702    0.162208    0.531648  9.45315e-05
1890    0.113895    0.161443    0.877575  0.000108695
1900    0.112528     0.16015    0.968467  9.96463e-05
1910    0.111902    0.159557     1.09521  0.000146431
1920      0.1096    0.157379    0.858991  0.00016996
1930    0.108502    0.156341    0.495085  7.72372e-05
1940    0.108055    0.155917    0.931602  9.26461e-05
1950     0.10665    0.154587    0.786114  8.34707e-05
1960    0.106385    0.154337    0.785687  8.02334e-05
1970    0.105045    0.153069    0.585515  0.000116668
1980    0.104052    0.152129    0.221573  7.82974e-05
1990    0.103479    0.151587    0.712757  7.49979e-05
2000    0.102552     0.15071    0.166018  0.000140981
2010    0.100659    0.148918   -0.142688  0.000127153
2020    0.100009    0.148303    0.585213  9.80891e-05
2030   0.0986975    0.147062    0.329716  8.64927e-05
2040   0.0982793    0.146666  -0.0710731  8.91306e-05
2050   0.0969149    0.145375    0.439014  0.000105866
2060   0.0961619    0.144662   0.0199255  0.000112087
2070   0.0946731    0.143253   -0.125811   0.0001052
2080   0.0940579    0.142671   -0.253248  9.36545e-05
2090   0.0928001    0.141481   -0.799561  0.00011644
2100   0.0917291    0.140467   0.0740058  6.31828e-05
2110   0.0915364    0.140285    -1.05477  4.31418e-05
2120   0.0908663    0.139651    -1.01812  9.21454e-05
2130   0.0896935    0.138541   -0.672692  0.000116238
2140   0.0885415    0.137451   -0.472573  0.000100984
2150   0.0876738     0.13663    -0.94592  7.37082e-05
2160   0.0870674    0.136056   -0.436472  8.47142e-05
2170   0.0859795    0.135026   -0.181686  0.000128129
2180   0.0845048    0.133631   -0.199826  0.000123624
2190    0.083507    0.132686   -0.764171  7.22028e-05
2200   0.0830607    0.132264  -0.0546935  8.56817e-05
2210   0.0817934    0.131065   -0.655229  7.49815e-05
2220   0.0815611    0.130845   -0.892177  3.65678e-05
2230   0.0810621    0.130373    0.181153  6.08459e-05
2240   0.0803442    0.129693    0.162854  8.28009e-05
2250    0.079406    0.128806   -0.110142  0.000103641
2260   0.0782714    0.127732   -0.128246  8.93071e-05
2270   0.0776199    0.127115   -0.383387  0.000137005
2280   0.0755313    0.125139   -0.692858  0.000172598
2290   0.0741679    0.123849   -0.401491  9.62563e-05
2300   0.0736061    0.123317   0.0714462  7.4577e-05
2310   0.0726764    0.122437   -0.547566  0.00010654
2320   0.0714753      0.1213   -0.583844  8.2311e-05
2330   0.0710302    0.120879   -0.784443  4.82462e-05
2340   0.0705104    0.120387   -0.475275  9.13363e-05
2350   0.0692035     0.11915   -0.329841  0.000119795
2360   0.0681145     0.11812   -0.438996  9.42744e-05
2370    0.067318    0.117366   -0.147754  0.000109335
2380   0.0659278    0.116051   -0.384596  0.000125621
2390   0.0648056    0.114989   -0.165912  8.64264e-05
2400   0.0641993    0.114415    -0.54865  6.31846e-05
2410   0.0635419    0.113793   -0.639702  9.92771e-05
2420   0.0622137    0.112536   -0.257514  9.08058e-05
2430   0.0617258    0.112074   -0.621794  6.37742e-05
2440   0.0609383    0.111329   -0.531008  0.000128609
2450   0.0591536     0.10964   -0.385343  0.000121407
2460   0.0585101    0.109031   -0.203363  9.18739e-05
2470   0.0573161    0.107901    0.251471  0.000107066
2480   0.0563688    0.107004   0.0147887  7.4851e-05
2490   0.0558191    0.106484     0.25108   8.385e-05
2500   0.0546918    0.105417   -0.276667  0.000130426
2510   0.0532106    0.104016    0.724426  7.67611e-05
2520   0.0531566    0.103965    0.778489  6.32344e-05
2530   0.0519459    0.102819    0.469232  9.22794e-05
2540    0.051311    0.102218   -0.167973  7.23954e-05
2550    0.050498    0.101449    0.341723  9.90855e-05
2560   0.0493293    0.100343    0.815016  6.77327e-05
2570   0.0491433    0.100167    0.359347  9.4562e-05
2580    0.047438   0.0985529    0.050232  0.00012006
2590   0.0467421   0.0978943  -0.0956647  4.81123e-05
2600   0.0464758   0.0976423   0.0682467  6.3522e-05
2610   0.0454717   0.0966921    0.141124  0.000105641
2620    0.044363   0.0956429   0.0866351  8.55306e-05
2630   0.0437611   0.0950733     0.34119  7.81378e-05
2640   0.0428002    0.094164  -0.0409268  8.47179e-05
2650   0.0420667   0.0934698   -0.259647  3.76269e-05
2660   0.0420477   0.0934518    -0.09618  4.54649e-05
2670   0.0411574   0.0926093    -0.09618  0.000145598
2680   0.0391357   0.0906961   -0.150385  9.06743e-05
2690   0.0393439   0.0908931  -0.0597062  1.26015e-05
2700   0.0388837   0.0904576    0.121971   7.829e-05
2710   0.0377781   0.0894114   0.0672868  9.26536e-05
2720   0.0370306    0.088704    0.376615  9.16416e-05
2730   0.0359453   0.0876769   -0.169449  7.76401e-05
2740   0.0354778   0.0872345   -0.151416  7.27171e-05
2750   0.0344909   0.0863006   -0.242361  9.2338e-05
2760   0.0336311   0.0854869   -0.424519  6.01273e-05
2770   0.0332884   0.0851626   -0.406362  7.46373e-05
2780   0.0321383   0.0840742   -0.151291  7.86979e-05
2790   0.0317144   0.0836731   -0.624549  7.11408e-05
2800   0.0307155   0.0827277   -0.406326  4.90911e-05
2810   0.0307326   0.0827439   -0.115368  -1.71233e-06
2820   0.0307497   0.0827601   -0.097211  3.23398e-05
2830   0.0300858   0.0821318    -0.20658  6.38627e-05
2840   0.0294725   0.0815514   -0.570273  3.51496e-05
2850   0.0293828   0.0814666   -0.279262   2.476e-05
2860   0.0289773   0.0810828   0.0484543  4.98317e-05
2870   0.0283862   0.0805234   -0.770552  4.07265e-05
2880   0.0281628    0.080312   -0.425159  3.42643e-05
2890   0.0277009   0.0798749   -0.133863  8.85773e-05
2900   0.0263912   0.0786355   -0.552489  8.61146e-05
2910   0.0259786    0.078245   -0.115706  4.53016e-05
2920   0.0254852   0.0777781   -0.607299  2.15127e-05
2930   0.0255484   0.0778379   -0.461722  4.28971e-05
2940   0.0246272   0.0769662   -0.225271  6.69296e-05
2950   0.0242098   0.0765711   -0.844105  3.64699e-05
2960   0.0238978   0.0762759   -0.334835  3.65822e-05
2970   0.0234781   0.0758787   -0.298397  8.21687e-05
2980   0.0222545   0.0747207   -0.516584  4.75108e-05
2990   0.0225279   0.0749795    -0.26226  -5.91548e-06
3000   0.0223728   0.0748327   -0.626558  3.16595e-05
3010   0.0218947   0.0743803   -0.790362  4.65278e-05
3020   0.0214422   0.0739521   -0.863399  7.6304e-05
3030   0.0203686   0.0729361   -0.553609  6.83829e-05
3040   0.0200746   0.0726578   -0.699488  2.94484e-05
3050   0.0197797   0.0723787    -1.55509  3.90058e-05
3060   0.0192945   0.0719195     -1.1365  6.75649e-05
3070   0.0184284   0.0710999    -1.17299  5.41612e-05
3080   0.0182112   0.0708944    -1.20974  4.21318e-05
3090   0.0175857   0.0703025   -0.481692  4.90298e-05
3100   0.0172306   0.0699665   -0.390675  5.05549e-05
3110   0.0165746   0.0693457   -0.772845  6.29667e-05
3120   0.0159713   0.0687747   -0.809319  6.17865e-05
3130   0.0153389   0.0681763   -0.954967  4.14296e-05
3140   0.0151427   0.0679906   -0.809479  3.74694e-05
3150   0.0145895   0.0674671   -0.882623  2.93129e-05
3160   0.0145564   0.0674358   -0.409419  2.80627e-05
3170   0.0140283   0.0669359   -0.500328  5.56491e-05
3180   0.0134435   0.0663825   -0.682486  7.09783e-05
3190   0.0126087   0.0655925    -0.48219  5.1835e-05
3200   0.0124068   0.0654015   -0.682629  3.40521e-05
3210   0.0119277   0.0649481   -0.719103  4.65966e-05
3220   0.0114748   0.0645195    -0.84654  5.22865e-05
3230   0.0108819   0.0639584   -0.664845  8.43854e-05
3240  0.00978712   0.0629224   -0.409792  5.6771e-05
3250   0.0097465   0.0628839   -0.100748  5.98051e-05
3260  0.00859102   0.0617905   -0.500987  7.24587e-05
3270  0.00829733   0.0615125   -0.355605  5.03769e-05
3280  0.00758348    0.060837   -0.410361  5.46951e-05
3290  0.00720343   0.0604773   -0.538012  5.62848e-05
3300  0.00645779   0.0597717  -0.0463659  5.50232e-05
3310  0.00610296   0.0594359    -0.48338  4.11558e-05
3320  0.00563467   0.0589928   -0.174141  8.49191e-05
3330  0.00440458   0.0578287  -0.0283865  7.66579e-05
3340  0.00410151   0.0575419   -0.228666  4.44764e-05
3350  0.00351505   0.0569869   -0.428891  4.17612e-05
3360  0.00326629   0.0567515   -0.647505  6.88268e-05
3370  0.00213851   0.0556842   -0.337928  5.05239e-05
3380  0.00225581   0.0557952   -0.337946  2.23534e-05
3390  0.00169145   0.0552611   -0.356156  5.22546e-05
3400  0.00121072   0.0548062     0.06247  3.81682e-05
3410  0.000928083   0.0545387   -0.174514  5.1142e-05
3420  0.000187879   0.0538382   -0.265335  5.26941e-05
3430  -0.0001258   0.0535414   0.0438508  1.13712e-05
3440  -3.95463e-05    0.053623   0.0254449  2.8642e-05
3450  -0.000698639   0.0529993  -0.0107983  7.17522e-05
3460  -0.00147459    0.052265    0.152953  5.32653e-05
3470  -0.00176395   0.0519912    0.571348  2.89795e-05
3480  -0.00205418   0.0517165    0.498453  5.07076e-05
3490  -0.0027781   0.0510314    0.225493  5.80545e-05
3500  -0.00321527   0.0506177    0.407597  1.62919e-05
3510  -0.00310394   0.0507231    0.516629  2.36316e-05
3520  -0.0036879   0.0501704    0.534785  5.41317e-05
3530  -0.00418657   0.0496985    0.225279  2.81381e-05
3540  -0.00425066   0.0496379    0.152367  1.36983e-05
3550  -0.00446054   0.0494393     0.27968  5.60187e-05
3560  -0.00537104   0.0485776    0.170222  5.76006e-05
3570  -0.00561255   0.0483491    0.497992  3.58907e-05
3580  -0.00608885   0.0478983    0.170222  2.57272e-05
3590  -0.00612709   0.0478621   0.0792405  4.19838e-05
3600  -0.00692853   0.0471037    0.279609  4.94038e-05
3610  -0.00711517   0.0469271    0.352308  6.91824e-06
3620  -0.00706689   0.0469728     0.71625  2.75996e-05
3630  -0.00766716   0.0464047     0.09738  5.27371e-05
3640  -0.00812164   0.0459746    0.297641  8.54658e-06
3650  -0.00783809   0.0462429    0.169973  -1.7364e-06
3660  -0.00808691   0.0460075    0.479337  3.3822e-05
3670  -0.00851453   0.0456028    0.370145  5.62049e-05
3680  -0.00921101   0.0449437    0.879788  1.91532e-05
3690  -0.0088976   0.0452403    0.606649  -9.02922e-06
3700  -0.00903042   0.0451146    0.424758  2.82337e-05
3710  -0.00946227   0.0447059    0.479301  2.08217e-05
