Time   C(t)   
ps   
0           1           1  -3.15855e-10   0.0572853
10    0.426396    0.888272   0.0546242   0.0293249
20    0.413502     0.88576    0.241436  0.00136457
30    0.399104    0.882956   0.0542587  0.000990219
40    0.393697    0.881903   -0.106481  0.00100616
50    0.378981    0.879036   -0.239269  0.000657132
60    0.380555    0.879343    0.695624  0.000146225
70    0.376057    0.878467    0.615972  0.000180084
80    0.376953    0.878641   -0.401131  0.000687915
90    0.362298    0.875787    0.455389  0.000756201
100    0.361829    0.875695   -0.614562  0.000379004
110    0.354718     0.87431      1.2564  0.000297973
120     0.35587    0.874534    -0.42702  4.09588e-05
130    0.353899    0.874151    0.588595  0.000421554
140    0.347438    0.872892  -0.0799126  0.000646804
150    0.340963    0.871631   -0.373962  0.00043003
160    0.338838    0.871217   -0.240365  0.000124238
170    0.338478    0.871147    0.588412  0.000370435
180    0.331429    0.869774   -0.213562  0.000466551
190    0.329147    0.869329   0.0798868  0.000228249
200    0.326864    0.868885    0.240261  0.000351968
210    0.322108    0.867958   -0.133597  0.000599359
220    0.314877     0.86655    0.562001  0.000113298
230    0.319842    0.867517  -0.0542326  -3.69355e-05
240    0.315616    0.866694     1.14968   0.0003544
250    0.312754    0.866136   -0.802183  0.000300206
260    0.309612    0.865524    0.427072  0.000404049
270    0.304673    0.864562    0.989073  0.000611675
280    0.297378    0.863141    0.534728  -7.05346e-05
290    0.306084    0.864837   -0.240548  -5.60448e-05
300    0.298499     0.86336     1.52359  0.000613925
310    0.293805    0.862445    0.133571  -2.17408e-05
320    0.298934    0.863444      1.0421  0.000387739
330     0.28605    0.860935    0.988968  0.000457019
340    0.289793    0.861664    0.774936  -0.000173305
350    0.289516     0.86161    0.346715  5.56633e-05
360     0.28868    0.861447     1.49616  -7.64713e-05
370    0.291046    0.861908      1.3087  -6.96018e-05
380    0.290072    0.861718     1.68321  0.000216086
390    0.286724    0.861066     1.14806  0.000300176
400    0.284069    0.860549     1.06778  0.000216973
410    0.282385    0.860221     1.52315  -3.43651e-05
420    0.284756    0.860683    0.319285  0.000378942
430    0.274806    0.858745     1.62971  0.000435202
440    0.276052    0.858987      1.7366  5.07355e-05
450    0.273791    0.858547     1.14853  0.000605662
460    0.263939    0.856628     1.84457  0.000381467
470    0.266162    0.857061     2.19129  -0.000201429
480    0.267967    0.857413     1.36259  0.000150508
490    0.263152    0.856475    0.907828  0.000228035
500    0.263407    0.856524     1.36225  -6.78405e-05
510    0.264508    0.856739     1.44232  0.000158374
520    0.260239    0.855907     2.32491  0.000448604
530    0.255536    0.854991      1.0954  3.85106e-05
540    0.259469    0.855757     0.98761  -8.86038e-05
550    0.257308    0.855336     1.12063  5.2923e-05
560     0.25841    0.855551     1.84309  0.000124268
570    0.254823    0.854852      1.8696  8.15973e-05
580    0.256778    0.855233     1.12097  0.000146179
590      0.2519    0.854283     1.46842  0.000438491
600    0.248009    0.853525    0.693483  0.000275314
610    0.246393     0.85321    0.827288  0.000275987
620    0.242489     0.85245     1.04098  -5.98088e-05
630    0.247589    0.853443     1.86918  -0.000252745
640    0.247544    0.853434     1.70876  1.16892e-05
650    0.247356    0.853398     1.68271   1.885e-05
660    0.247167    0.853361    0.719137  0.000687028
670    0.233615    0.850721      1.8435  0.000285059
680    0.241466    0.852251     1.62851  -0.000209919
690    0.237813    0.851539     1.38764  0.00031511
700    0.235163    0.851023    0.853543  2.72341e-05
710    0.237269    0.851433     1.01363  0.000186387
720    0.231436    0.850297     1.97658  7.07179e-05
730    0.235854    0.851158     1.28088  -0.00016737
740    0.234783    0.850949    0.719163  0.000397103
750    0.227912    0.849611     1.33414  0.000513738
760    0.224508    0.848948     2.29639  -0.000123932
770    0.230391    0.850093     1.01193  1.43826e-05
780    0.224221    0.848891     1.44122  0.000362999
790    0.223131    0.848679     1.41385  2.89328e-05
800    0.223642    0.848779     2.10866  0.000401143
810    0.215108    0.847117     1.09362  7.2062e-06
820    0.223498    0.848751     1.86796  -6.49959e-05
830    0.216408     0.84737      2.0828  0.000482923
840    0.213839    0.846869     1.57453  0.000205866
850    0.212291    0.846568     1.62793  -7.9684e-05
860    0.215433     0.84718     2.13588  0.000236022
870     0.20757    0.845648     1.46761  5.21891e-05
880    0.214389    0.846977     1.78783  -0.000255851
890    0.212687    0.846645     1.46683  0.000457555
900    0.205238    0.845194     2.88472  0.000450869
910     0.20367    0.844889     1.92193  -0.000485264
920    0.214944    0.847084     1.97457  -2.00741e-05
930    0.204071    0.844967     2.53633  0.000163713
940    0.211669    0.846447     1.62694  -0.000205284
950    0.208177    0.845766     2.61635  -8.78543e-05
960    0.213426    0.846789     1.43947  0.000209431
970    0.203989    0.844951     2.37549  0.00025374
980    0.208352      0.8458     1.75996  0.000299641
990    0.197996    0.843783     2.72338  0.000515482
1000    0.198042    0.843792     2.72283  -0.000138896
1010    0.200774    0.844324      1.7604  9.22762e-05
1020    0.196196    0.843433     2.56285  0.000383578
1030    0.193102     0.84283     2.34929  -7.17893e-05
1040    0.197632    0.843713     1.68065  -3.4181e-05
1050    0.193786    0.842963     1.62639  0.000152712
1060    0.194578    0.843118     2.21451  0.000100844
1070    0.191769     0.84257     2.40227  0.000296259
1080    0.188653    0.841963     2.24181  -7.17282e-05
1090    0.193203     0.84285     2.40169  0.000237308
1100    0.183907    0.841039     2.42902  0.00035766
1110     0.18605    0.841457     1.86691  -0.000290001
1120    0.189707    0.842169     2.00043  -0.000222559
1130    0.190501    0.842324     1.91976  0.000306311
1140     0.18358    0.840975     2.05427  -2.66373e-05
1150    0.191034    0.842427     2.18685  8.02346e-05
1160    0.181976    0.840663     2.64224  0.000208512
1170    0.186864    0.841615     2.48077  -0.000177774
1180    0.185531    0.841355     2.61518  0.000650782
1190    0.173848     0.83908     2.58889  0.000446003
1200    0.176611    0.839618      3.0162  -0.000268979
1210    0.179228    0.840128      2.6152  -0.000101624
1220    0.178644    0.840014     2.42831  -0.000147862
1230    0.182185    0.840704     3.09583  5.0649e-06
1240    0.178542    0.839994     3.49748  0.000349367
1250    0.175198    0.839343     2.29445  2.80142e-05
1260    0.177982    0.839885     2.08047  -4.06228e-05
1270     0.17601    0.839501     2.85557  0.000105098
1280     0.17588    0.839476     2.77529  -7.15435e-05
1290    0.177441     0.83978     2.88187  0.000228831
1300    0.171303    0.838584      3.4712  0.000406238
1310    0.169316    0.838197     2.80269  -9.51663e-06
1320    0.171494    0.838621     2.53401  -0.000148398
1330    0.172284    0.838775     2.74838  -0.000110193
1340    0.173698     0.83905      3.6298  7.55221e-05
1350    0.170774    0.838481     2.34688  0.000184093
1360    0.170016    0.838333     2.13351  -0.000195935
1370    0.174692    0.839244      2.7744  4.49672e-05
1380    0.169116    0.838158      2.5076  0.000340293
1390    0.167887    0.837919     2.42732  0.000372593
1400    0.161665    0.836707     2.82905  0.000271749
1410    0.162452     0.83686     2.69457  -8.52272e-06
1420    0.161835     0.83674     2.58785  -6.3359e-05
1430    0.163719    0.837107     1.78494  8.54522e-05
1440    0.160126    0.836407     1.89244  0.000398818
1450    0.155742    0.835553     2.13324  0.000462542
1460    0.150875    0.834605     2.16054  0.000102191
1470    0.153699    0.835155     2.24038  -0.000180329
1480    0.154482    0.835308     2.53377  -0.000401372
1490    0.161726    0.836719     3.36206  0.000228769
1500    0.149906    0.834416     2.58738  0.000567625
1510    0.150374    0.834507     1.99879  -0.000149453
1520    0.152895    0.834999     2.34615  -0.000553258
1530    0.161439    0.836663     2.79974  0.00038061
1540    0.145283    0.833516     2.64072  0.000848033
1550    0.144478    0.833359     1.89178  -0.000300498
1560    0.151293    0.834686     2.85379  -0.000324626
1570    0.150971    0.834624     2.10519  0.000199469
1580    0.147304    0.833909     2.50676  6.4338e-05
1590    0.149684    0.834373     2.72032  -3.88473e-05
1600    0.148081    0.834061     3.52266  -4.72471e-05
1610    0.150629    0.834557     2.80013  -0.000223032
1620    0.152541     0.83493     1.83758  0.000280913
1630    0.145011    0.833463     2.26603  0.000433273
1640    0.143876    0.833242     3.01411  -7.0978e-05
1650     0.14643    0.833739     2.61319  0.000146118
1660    0.140954    0.832672     2.64031  0.000387342
1670    0.138683     0.83223     2.85442  -0.000336545
1680    0.147684    0.833984      3.0139  -0.000369012
1690    0.146064    0.833668     3.22718  0.000146271
1700    0.144759    0.833414     2.45198  0.00017909
1710    0.142482     0.83297     2.37181  0.00016327
1720    0.141494    0.832778     2.98705  9.7461e-06
1730    0.142287    0.832932     3.12038  -9.57191e-05
1740    0.143408    0.833151     2.45164  -0.00020152
1750    0.146317    0.833717     3.22645  0.000131629
1760    0.140775    0.832638     3.38711  0.000343186
1770    0.139453     0.83238     2.31789  -0.000185684
1780    0.144489    0.833361     3.01291  0.000214265
1790    0.135168    0.831546      2.9592  0.000328344
1800    0.137922    0.832082     2.07724  -0.000112075
1810     0.13741    0.831982     2.26436  0.000280745
1820    0.132307    0.830988     3.12012  2.68668e-05
1830    0.136872    0.831878      3.0389  0.000117858
1840     0.12995    0.830529     3.03945  0.000446416
1850    0.127944    0.830138     2.71902  0.000192615
1860    0.126098    0.829779     2.23798  -2.95907e-05
1870    0.128536    0.830254     1.86284  -0.000111952
1880    0.128337    0.830215     2.71813  -6.27466e-05
1890    0.129791    0.830498      3.0388  -8.7624e-05
1900    0.130089    0.830556      2.9318  0.000384343
1910    0.122104    0.829001     2.47719  0.000484299
1920    0.120403     0.82867     2.74493  -0.000120429
1930    0.124512     0.82947     2.74425  0.000137427
1940    0.117655    0.828134     3.44022  0.000328604
1950     0.11794     0.82819      2.8785  0.000238149
1960    0.112892    0.827207     2.90518  7.98062e-05
1970    0.116344    0.827879     2.53088  -0.000278771
1980    0.118467    0.828293      2.7709  0.000364667
1990    0.109051    0.826458     2.71771  0.000708418
2000    0.104299    0.825533     2.74504  -9.47084e-05
2010    0.110945    0.826827     2.58378  -0.00020357
2020     0.10837    0.826326     2.98459  -0.000187872
2030    0.114703    0.827559     3.09066  0.000191223
2040    0.104546    0.825581     3.68032  0.000553182
2050    0.103639    0.825404     3.01171  -1.88805e-05
2060    0.104924    0.825654     2.82425  -0.000128629
2070    0.106211    0.825905     3.49254  -1.04807e-05
2080    0.105133    0.825695     3.06438  0.000192722
2090    0.102357    0.825155     2.31596  0.000252424
2100    0.100085    0.824712     2.63707  -5.27095e-05
2110    0.103411     0.82536     3.46522  -6.9448e-05
2120    0.101474    0.824982     2.52996  -9.55809e-05
2130    0.105323    0.825732     3.38544  -4.42792e-05
2140    0.102359    0.825155     3.38526  0.000476038
2150   0.0958021    0.823878     3.03781  0.00021197
2160   0.0981198    0.824329     2.74355  8.46259e-05
2170   0.0941096    0.823548     2.55663  0.000273049
2180   0.0926588    0.823265     2.77033  -6.06965e-05
2190   0.0953235    0.823785     3.06474  -9.49841e-05
2200   0.0945585    0.823636     2.55619  -0.000190121
2210   0.0991259    0.824525     3.33113  -0.000354018
2220    0.101639    0.825015     2.23408  8.49016e-05
2230   0.0974279    0.824194     2.23466  0.000188377
2240   0.0978713    0.824281     2.98324  2.48168e-05
2250   0.0969316    0.824098     2.76926  -1.14739e-06
2260   0.0978943    0.824285     3.11678  -0.000148413
2270   0.0998998    0.824676     2.63542  0.000129073
2280   0.0953128    0.823782     2.74251  0.000276629
2290   0.0943672    0.823598     3.43774  0.000286314
2300   0.0895865    0.822667     2.82276  0.000199807
2310   0.0903711     0.82282     2.31483  -0.000200816
2320   0.0936028    0.823449     3.30383  -0.000105144
2330    0.092474    0.823229     2.20736  0.000550611
2340   0.0825906    0.821304      2.4221  0.000227378
2350   0.0879264    0.822344      2.6348  -0.000437802
2360   0.0913467     0.82301     2.79559  -1.74731e-05
2370   0.0882759    0.822412     3.25004  -9.71567e-05
2380   0.0932898    0.823388     2.76821  -0.000369838
2390   0.0956727    0.823853      2.6075  0.000202193
2400   0.0892459    0.822601     2.58185  0.000493541
2410   0.0858018     0.82193     3.03624  -8.84049e-05
2420    0.091014    0.822945     2.68804  0.000106689
2430   0.0836681    0.821514     2.79598  0.000531639
2440   0.0803812    0.820874     2.71539  8.94453e-05
2450   0.0818791    0.821166     3.94509  -0.000194482
2460   0.0842709    0.821632     3.11566  0.000508306
2470    0.071713    0.819186     2.71552  8.97363e-05
2480   0.0824762    0.821282     2.68775  -0.000470805
2490   0.0811291     0.82102     2.50037  0.000286789
2500   0.0767404    0.820165     2.74104  0.000332123
2510   0.0744867    0.819726     2.20705  2.85197e-05
2520     0.07617    0.820054     3.00863  0.000181324
2530   0.0708602    0.819019     2.90202  0.000343063
2540   0.0693087    0.818717     2.92919  0.000146362
2550   0.0679329    0.818449     3.22284  2.06709e-05
2560   0.0688953    0.818637     2.63441  0.000237338
2570   0.0631862    0.817525     2.63477  -0.00010574
2580   0.0710101    0.819049     2.17915  -0.000240827
2590   0.0680027    0.818463      2.1258  0.000464272
2600   0.0617247     0.81724     3.19528   -0.000106
2610   0.0701227    0.818876      2.7405  -0.000305042
2620   0.0678255    0.818428     2.15242  0.000311728
2630   0.0638882    0.817661     1.96561  0.000166681
2640   0.0644919    0.817779     2.87417  0.000267893
2650   0.0585303    0.816618     2.76709  0.000112916
2660   0.0622336    0.817339      2.8743  -0.000142185
2670    0.061374    0.817172     3.40835  0.000232549
2680   0.0575826    0.816433     2.47322  0.000315446
2690   0.0550651    0.815943     3.27501  0.000536749
2700   0.0468476    0.814342     3.11529  -0.000160882
2710   0.0582827     0.81657     3.51504  -0.000169175
2720   0.0502311    0.815001     2.98099  0.000326875
2730   0.0517452    0.815296     3.51535  0.000143807
2740    0.047355    0.814441     3.91716  0.000143792
2750   0.0488694    0.814736     3.54263  7.97451e-05
2760   0.0457601     0.81413     3.40874  -0.000216989
2770   0.0532092    0.815581     3.88924  -0.000476772
2780   0.0552955    0.815988     3.32791  0.00026523
2790   0.0479046    0.814548     3.83613  0.000665639
2800   0.0419827    0.813395     3.97006  -3.16562e-05
2810   0.0485377    0.814671     3.00696  3.44714e-05
2820   0.0412933     0.81326     3.00717  0.000538463
2830   0.0377684    0.812574     4.26456  -0.000161877
2840   0.0445309    0.813891     3.83584  -0.000161602
2850   0.0410005    0.813203     4.04974  -0.000322392
2860   0.0509787    0.815147     3.56828  -0.000134275
2870    0.043686    0.813726     3.62194  0.000372439
2880   0.0435299    0.813696     3.83516  0.000336254
2890   0.0369609    0.812416     4.50448  9.13886e-05
2900   0.0417021     0.81334     4.18295  2.61942e-05
2910    0.036437    0.812314     3.48805  -0.000201704
2920   0.0457362    0.814126      4.2899  -0.000106413
2930   0.0385653    0.812729     3.91578  0.000499784
2940   0.0357405    0.812179     3.48821  0.00024482
2950   0.0336689    0.811775     4.12924  6.46742e-05
2960   0.0344471    0.811927     3.70112  0.000455918
2970   0.0245505    0.809999     4.42422  7.46042e-05
2980    0.032955    0.811636     3.99546  -0.0002777
2990   0.0301045    0.811081     4.20957  0.000151534
3000   0.0299243    0.811046     4.71736  0.000372807
3010   0.0226484    0.809629     4.95867  -5.8799e-05
3020   0.0311003    0.811275     4.36968  -0.000394411
3030   0.0305366    0.811165     4.93142  -9.7631e-05
3040   0.0330529    0.811655     3.80807  9.52137e-05
3050   0.0286323    0.810794     3.67466  5.63355e-05
3060   0.0319262    0.811436     4.60981  -5.90897e-05
3070   0.0298141    0.811024     4.39591  0.000172817
3080   0.0284698    0.810763     4.04815  0.000503242
3090   0.0197493    0.809064     5.54603  -3.0111e-05
3100   0.0290721     0.81088     4.50286  -0.000301324
3110   0.0257758    0.810238     5.46578  0.000300941
3120   0.0230532    0.809708     4.39588  0.000194512
3130   0.0218855     0.80948     4.60981  -8.8099e-05
3140   0.0248152    0.810051     4.10196  -0.000234783
3150   0.0265812    0.810395     5.22482  -0.000157318
3160   0.0279616    0.810664     5.01039  0.000283836
3170   0.0209045    0.809289     5.33184  3.8419e-05
3180   0.0271932    0.810514     5.09028  -0.000314849
3190   0.0272014    0.810516     4.93032  0.000255469
3200   0.0220838    0.809519     4.63627  0.00054215
3210   0.0163584    0.808403     4.66287  -0.000187857
3220   0.0258409    0.810251     4.87617  -0.000187337
3230   0.0201052    0.809133     4.04783  0.000495132
3240   0.0159383    0.808322     4.36874  -0.000257978
3250   0.0252647    0.810138     4.68844  -0.000178126
3260   0.0195008    0.809016     5.09041  -5.02921e-05
3270   0.0262706    0.810334     4.39424  0.000109978
3280   0.0173013    0.808587     4.52859  0.000718501
3290   0.0119006    0.807535     4.60937  -0.000129395
3300   0.0198891    0.809091      4.5817  -0.000529482
3310   0.0224902    0.809598     4.52768  0.000120673
3320   0.0174757    0.808621     4.60832  0.00028125
3330   0.0168652    0.808502      4.9293  0.000312646
3340   0.0112228    0.807403     4.68954  0.000232518
3350   0.0122148    0.807596     4.23467  -4.89456e-05
3360   0.0122017    0.807594     4.87588  8.23155e-05
3370   0.0105685    0.807276     4.79563  0.000224226
3380  0.00771716     0.80672     4.39489  -0.000201183
3390   0.0145922    0.808059     4.60811  -5.88755e-05
3400  0.00889467     0.80695     5.03591  -0.000110759
3410   0.0168074    0.808491     4.84848  -0.000161005
3420   0.0121148    0.807577     4.84895   0.0005108
3430  0.00659136    0.806501     4.60824  2.19559e-05
3440   0.0116756    0.807491     5.03555  6.37257e-05
3450  0.00531685    0.806253     5.00976  -0.000111248
3460   0.0139006    0.807925     4.74168  -0.00010014
3470  0.00731965    0.806643     4.34087  0.000340416
3480  0.00709229    0.806599     4.92896  -9.04553e-05
3490  0.00912876    0.806995     4.66167  -0.000348341
3500   0.0140591    0.807956     5.73078  -0.000101364
3510    0.011156     0.80739     4.79505  0.00035287
3520  0.00700171    0.806581     4.82204  0.00026064
3530  0.00594324    0.806375     5.16969   -0.000226
3540   0.0115217    0.807461     4.84822  -0.00026774
3550    0.011298    0.807418     4.84819  0.000282611
3560  0.00586949     0.80636     4.74121  0.000345603
3570  0.00438598    0.806071     5.06191  0.000159062
3580  0.00268826    0.805741     5.08916  -0.000154089
3590  0.00746776    0.806672     5.00846  -7.51243e-06
3600  0.00283851     0.80577     4.07346  4.41107e-05
3610  0.00658555      0.8065     5.06191  5.54635e-05
3620  0.00172924    0.805554     4.90151  0.000297009
3630  0.000645366    0.805343     4.71417  -2.84432e-05
3640   0.0022981    0.805665     4.42054  -0.000492791
3650   0.0105012    0.807263     4.15212  -7.0978e-05
3660  0.00371766    0.805941     4.39319  0.000128828
3670  0.00792463    0.806761     4.47316  1.3449e-05
3680  0.00344868    0.805889     4.52713  0.000458963
3690  -0.00125462    0.804973     4.71402  0.000183787
3700  -0.000227056    0.805173     4.39345  -0.000358669
3710  0.00591876     0.80637     4.28577  -0.000113926
3720  0.00205146    0.805617     4.71417  0.00050494
3730  -0.00418004    0.804403     4.47347  0.000313579
3740  -0.00422012    0.804395     5.16894  3.62923e-05
3750  -0.00490588    0.804262     4.31284  0.000208283
3760  -0.00838578    0.803584     3.99198  -1.72128e-05
3770  -0.00456163    0.804329     4.65994  1.56063e-05
3780  -0.0086979    0.803523     4.23284  5.8187e-05
3790  -0.00572536    0.804102     4.44677  -0.000211327
3800  -0.00447135    0.804346     4.66049  -0.000114691
3810  -0.00343155    0.804549     3.72421  -0.000115012
3820  -0.00217111    0.804794     4.09807  0.000243091
3830  -0.00829336    0.803602     3.88477  -0.000289925
3840  0.00362739    0.805924     4.23175  -0.000104073
3850  -0.00621191    0.804007     4.23222  0.000417759
3860  -0.00472779    0.804296     4.90044  -0.000301691
3870  -0.000178095    0.805182     4.68578  -0.000105174
3880  -0.0026243    0.804706     4.52603  4.74768e-05
3890  -0.00112763    0.804998     4.81966  -1.8039e-05
3900  -0.00226352    0.804776     4.57909  -4.0255e-05
3910  -0.00032253    0.805154     4.55229  -0.000150432
3920  0.000745124    0.805362     4.57872  -4.05151e-05
3930  0.000487773    0.805312     4.25818  5.88296e-05
3940  -0.000431468    0.805133        3.75  0.00016965
3950  -0.00290522    0.804651     4.44515  0.000580707
3960  -0.0120456    0.802871     4.87311   0.0003042
3970  -0.00898922    0.803466     4.68567  -0.000462053
3980  -0.00280454    0.804671      4.7653  -0.000139906
3990  -0.00619111    0.804011     4.41796    9.35e-05
4000  -0.00467454    0.804307     4.97941  -4.01021e-05
4010  -0.00538906    0.804167     4.15087  -0.000141313
4020  -0.00184827    0.804857     4.36409  0.000453715
4030  -0.0144634      0.8024     4.41806  0.000914834
4040   -0.020145    0.801293     4.68583  1.73046e-05
4050  -0.0148094    0.802333     4.44471  -3.80672e-05
4060  -0.0193836    0.801442     4.36454  -9.56114e-05
4070  -0.0128972    0.802705     3.93678  9.75393e-05
4080  -0.0213344    0.801062     4.47164  0.000107928
4090  -0.0150558    0.802285     4.87233  -0.000367605
4100  -0.0139823    0.802494     4.63089  -0.000141757
4110  -0.0122206    0.802837     5.19242  9.72486e-05
4120  -0.0159273    0.802115     4.71109  0.000234217
4130   -0.016905    0.801924     4.15014  0.000189402
4140  -0.0197153    0.801377     4.95216  7.52773e-05
4150  -0.0184105    0.801631     4.01623  7.59812e-05
4160   -0.021235    0.801081     4.55148  -1.60959e-05
4170  -0.0180886    0.801694     4.36401  0.000168563
4180  -0.0246062    0.800424     4.55116  -3.92758e-05
4190  -0.0173031    0.801847     3.72192  -0.000280867
4200  -0.0189889    0.801518     4.95203  1.83297e-05
4210  -0.0176697    0.801775     4.63082  0.000262094
4220  -0.0242307    0.800497     4.33713  -3.96583e-05
4230  -0.0168765     0.80193     3.98882  -0.000108387
4240   -0.022063     0.80092     4.55069  -0.000168119
4250  -0.0135141    0.802585     4.49649  0.000556502
4260   -0.033193    0.798752     4.76483  0.000345358
4270  -0.0204213    0.801239     4.71039  -0.000318537
4280  -0.0268223    0.799993     4.89824  -0.000145261
4290  -0.0175161    0.801805     4.25531  -0.000120826
4300  -0.0244058    0.800463     3.98859  0.000124697
4310    -0.02001     0.80132     4.04173  -0.000357705
4320  -0.0172517    0.801857     4.17519  9.01186e-05
4330  -0.0218124    0.800968     4.46927  0.00104897
4340  -0.0382311     0.79777     5.24593  0.000838073
4350  -0.0385738    0.797704     4.76439  -0.000274579
4360  -0.0327395     0.79884     4.68385  -0.000572598
4370  -0.0271219    0.799934     4.46942  -0.000336162
4380  -0.0260163     0.80015     4.44252  0.000104226
4390  -0.0292064    0.799528     4.17543  0.000343614
4400  -0.0328886    0.798811     4.22877  0.000248997
4410  -0.0341863    0.798558     4.65655  6.98611e-05
4420  -0.0342858    0.798539     4.68283  0.000575551
4430  -0.0456973    0.796316     4.33609  5.82481e-05
4440  -0.0354507    0.798312      4.5759  -0.000374321
4450  -0.0382109    0.797774     4.01469  0.000421706
4460  -0.0438849    0.796669     4.12195  0.000580538
4470  -0.0498217    0.795513     4.01516  0.000121163
4480  -0.0463081    0.796197     4.28196  -0.000461487
4490  -0.0405919    0.797311     4.36177  -0.000280087
4500  -0.0407064    0.797288     3.88041  -6.1859e-05
4510  -0.0393548    0.797552     4.38834  -0.000196578
4520  -0.0367748    0.798054     4.62886  -8.69209e-05
4530  -0.0376163     0.79789     4.86935  0.000428025
4540  -0.0453353    0.796387     4.52196  0.000527416
4550  -0.0481647    0.795835     5.00342  -7.37932e-05
4560  -0.0438595    0.796674     4.36127  -0.000665991
4570  -0.0348449     0.79843      4.2003  0.000197511
4580  -0.0478097    0.795905     4.65543  0.000183894
4590  -0.0385227    0.797714     4.44092  -0.000260242
4600  -0.0426049    0.796918     4.68189  0.000421538
4610  -0.0469535    0.796071     4.28097  -1.29594e-05
4620  -0.0423457    0.796969     3.98663  -0.000199393
4630  -0.0429656    0.796848     3.79909  0.000137075
4640  -0.0450872    0.796435     3.55838  2.45722e-05
4650  -0.0434571    0.796752     3.53163  0.000225832
4660  -0.0496038    0.795555     3.79909  0.000288869
4670  -0.0492345    0.795627     4.14708  -0.000276354
4680  -0.0440767    0.796632     4.11963  -0.000175953
4690  -0.0457154    0.796313     3.85215  0.000252669
4700  -0.0491301    0.795647     3.66531  1.52737e-08
4710  -0.0457157    0.796313     4.01244  -0.00013885
4720  -0.0463531    0.796188     3.53124  0.000101869
4730  -0.0477531    0.795916     4.09254  1.28828e-05
4740  -0.0466108    0.796138     3.85228  -0.000293153
4750    -0.04189    0.797058     3.55768  0.000256035
4760  -0.0517315    0.795141     3.63848  0.000614429
4770  -0.0541786    0.794664     4.06607  5.26329e-05
4780  -0.0527841    0.794936     4.09285  -0.00015262
4790  -0.0511262    0.795259     3.71805  -0.000127451
4800  -0.0502351    0.795432     3.42408  -0.000412159
4810   -0.042883    0.796864     3.45026  0.000220951
4820  -0.0546541    0.794571     3.61136  0.000479205
4830  -0.0524671    0.794997     3.37037  1.47646e-05
4840  -0.0549494    0.794514      3.7982  0.000300696
4850   -0.058481    0.793826     3.45044  9.31175e-05
4860  -0.0568118    0.794151     3.93174  -0.000311024
4870  -0.0522606    0.795038     3.18249  2.23387e-06
4880  -0.0568565    0.794142     4.09162  0.000552294
4890  -0.0633064    0.792886      3.3972  0.000212506
4900  -0.0611066    0.793315     3.50399  -0.000470529
4910  -0.0538958    0.794719     3.36977  -0.000445452
4920  -0.0521975     0.79505     3.61053  0.000133862
4930  -0.0565731    0.794198      3.5036  0.000160286
4940  -0.0554032    0.794426     3.20906  -0.000435706
4950   -0.047859    0.795895       3.396  -0.000436869
4960  -0.0466659    0.796127     2.96762  0.000480153
4970   -0.057462    0.794025     3.20916  0.000253939
4980  -0.0517446    0.795138     3.68981  -0.000278481
4990  -0.0518924    0.795109     3.76991  -0.0008109
