Time   Number   
ps   
0          41          19
10          36          23
20          37          22
30          34          19
40          39          19
50          39          17
60          38          20
70          40          22
80          40          19
90          38          27
100          39          23
110          37          22
120          36          20
130          41          19
140          40          18
150          38          22
160          42          18
170          39          20
180          37          19
190          35          22
200          41          17
210          38          19
220          37          19
230          39          18
240          39          20
250          40          20
260          40          21
270          38          19
280          35          23
290          37          18
300          37          16
310          38          23
320          37          21
330          40          22
340          37          22
350          36          26
360          36          23
370          35          22
380          35          24
390          38          23
400          35          20
410          38          19
420          38          14
430          39          17
440          38          18
450          39          19
460          41          21
470          36          18
480          38          25
490          38          23
500          35          22
510          38          25
520          37          24
530          36          21
540          38          27
550          41          20
560          40          21
570          43          21
580          41          19
590          39          22
600          37          23
610          40          18
620          36          21
630          39          20
640          38          19
650          38          18
660          37          21
670          35          22
680          39          20
690          35          20
700          37          20
710          36          16
720          39          17
730          38          21
740          36          19
750          39          24
760          41          17
770          33          23
780          38          17
790          36          21
800          39          17
810          36          20
820          38          14
830          38          19
840          38          19
850          38          16
860          36          20
870          35          23
880          37          19
890          34          22
900          40          17
910          42          20
920          38          22
930          39          19
940          35          21
950          40          21
960          40          20
970          37          23
980          39          19
990          36          20
1000          37          21
1010          38          20
1020          36          19
1030          39          19
1040          40          18
1050          38          21
1060          36          20
1070          34          18
1080          38          17
1090          37          17
1100          35          21
1110          39          18
1120          37          19
1130          37          18
1140          40          20
1150          35          22
1160          35          24
1170          41          19
1180          36          22
1190          40          25
1200          39          20
1210          37          21
1220          37          21
1230          37          18
1240          37          21
1250          38          22
1260          39          21
1270          36          21
1280          38          22
1290          38          22
1300          36          22
1310          40          20
1320          40          22
1330          41          20
1340          35          26
1350          41          24
1360          38          18
1370          37          20
1380          39          23
1390          37          24
1400          36          20
1410          35          20
1420          35          20
1430          34          22
1440          36          21
1450          37          20
1460          37          18
1470          32          19
1480          37          24
1490          39          19
1500          40          24
1510          38          17
1520          32          24
1530          38          28
1540          35          20
1550          34          22
1560          33          19
1570          37          21
1580          33          21
1590          37          24
1600          36          22
1610          36          18
1620          41          20
1630          39          19
1640          38          17
1650          35          19
1660          33          19
1670          35          19
1680          38          18
1690          36          17
1700          38          17
1710          33          20
1720          36          16
1730          38          22
1740          39          18
1750          38          16
1760          38          21
1770          37          20
1780          37          16
1790          36          16
1800          40          16
1810          34          20
1820          37          18
1830          36          19
1840          37          19
1850          39          15
1860          36          17
1870          34          22
1880          33          21
1890          35          21
1900          34          21
1910          40          24
1920          31          27
1930          38          17
1940          36          20
1950          38          17
1960          36          18
1970          40          16
1980          37          15
1990          40          15
2000          37          18
2010          35          19
2020          37          18
2030          38          17
2040          36          18
2050          33          20
2060          40          21
2070          34          20
2080          37          16
2090          39          18
2100          38          19
2110          35          19
2120          35          19
2130          35          15
2140          40          14
2150          35          21
2160          37          17
2170          40          16
2180          35          19
2190          36          23
2200          38          21
2210          38          19
2220          39          17
2230          39          20
2240          33          19
2250          39          21
2260          32          22
2270          36          17
2280          36          20
2290          41          17
2300          34          22
2310          38          20
2320          33          23
2330          35          18
2340          36          21
2350          38          17
2360          37          21
2370          38          24
2380          38          20
2390          34          20
2400          39          22
2410          40          22
2420          40          21
2430          40          16
2440          38          18
2450          38          18
2460          39          18
2470          37          21
2480          37          26
2490          37          20
2500          38          20
2510          34          18
2520          37          20
2530          41          20
2540          38          17
2550          35          21
2560          41          18
2570          37          24
2580          39          19
2590          36          20
2600          39          17
2610          38          21
2620          38          24
2630          38          26
2640          39          24
2650          34          25
2660          35          18
2670          38          23
2680          37          18
2690          38          20
2700          37          18
2710          37          25
2720          38          20
2730          38          18
2740          35          21
2750          35          21
2760          40          20
2770          41          19
2780          40          21
2790          38          20
2800          38          18
2810          36          22
2820          35          27
2830          40          20
2840          37          19
2850          38          17
2860          33          22
2870          37          24
2880          34          24
2890          40          18
2900          38          22
2910          40          20
2920          37          20
2930          41          16
2940          39          19
2950          36          18
2960          36          22
2970          37          19
2980          33          21
2990          36          21
3000          37          19
3010          39          22
3020          35          23
3030          39          19
3040          40          20
3050          40          20
3060          35          21
3070          41          18
3080          37          18
3090          39          23
3100          38          22
3110          41          18
3120          40          17
3130          38          13
3140          37          20
3150          38          19
3160          37          22
3170          36          18
3180          42          21
3190          37          22
3200          36          22
3210          38          20
3220          35          20
3230          36          21
3240          42          24
3250          35          23
3260          36          21
3270          38          19
3280          39          21
3290          40          17
3300          37          16
3310          38          17
3320          40          22
3330          35          23
3340          34          21
3350          40          20
3360          39          20
3370          37          23
3380          36          19
3390          34          26
3400          36          15
3410          38          19
3420          37          22
3430          35          29
3440          37          23
3450          36          23
3460          38          22
3470          39          20
3480          37          24
3490          37          18
3500          35          22
3510          37          20
3520          36          20
3530          39          23
3540          39          21
3550          39          22
3560          37          21
3570          37          20
3580          35          28
3590          40          21
3600          36          22
3610          38          20
3620          38          21
3630          36          16
3640          39          22
3650          35          26
3660          39          19
3670          38          21
3680          38          23
3690          38          20
3700          40          19
3710          36          22
3720          39          18
3730          38          22
3740          39          18
3750          42          18
3760          40          19
3770          38          17
3780          38          21
3790          37          18
3800          38          19
3810          40          18
3820          37          22
3830          37          17
3840          38          20
3850          36          16
3860          36          17
3870          36          20
3880          35          21
3890          35          18
3900          35          23
3910          37          20
3920          35          20
3930          40          18
3940          36          20
3950          40          20
3960          41          21
3970          42          21
3980          38          21
3990          39          22
4000          39          19
4010          39          23
4020          39          20
4030          40          21
4040          40          18
4050          44          20
4060          39          21
4070          37          23
4080          41          19
4090          42          19
4100          40          23
4110          41          17
4120          40          22
4130          42          19
4140          39          21
4150          36          26
4160          37          23
4170          42          18
4180          40          23
4190          38          24
4200          41          23
4210          38          22
4220          39          20
4230          40          21
4240          41          22
4250          43          22
4260          43          19
4270          44          21
4280          45          19
4290          43          20
4300          38          22
4310          41          22
4320          40          21
4330          38          25
4340          40          20
4350          41          18
4360          40          22
4370          40          20
4380          42          20
4390          40          21
4400          41          20
4410          38          20
4420          40          21
4430          41          24
4440          42          18
4450          39          19
4460          42          21
4470          39          20
4480          41          22
4490          41          20
4500          37          26
4510          42          22
4520          40          21
4530          40          22
4540          36          23
4550          37          24
4560          36          24
4570          43          21
4580          33          28
4590          41          22
4600          40          22
4610          40          19
4620          41          23
4630          40          26
4640          40          23
4650          37          24
4660          40          24
4670          43          20
4680          41          21
4690          40          19
4700          41          21
4710          39          23
4720          34          27
4730          35          26
4740          39          17
4750          40          17
4760          39          19
4770          37          25
4780          40          16
4790          40          25
4800          39          18
4810          36          21
4820          40          19
4830          38          20
4840          41          23
4850          37          19
4860          38          19
4870          40          19
4880          39          18
4890          41          21
4900          39          17
4910          33          22
4920          36          20
4930          40          21
4940          36          18
4950          39          20
4960          41          18
4970          36          20
4980          39          20
4990          36          23
5000          40          19
5010          40          17
5020          38          18
5030          38          21
5040          38          19
5050          39          17
5060          37          18
5070          39          19
5080          39          18
5090          42          19
5100          38          18
5110          39          19
5120          40          17
5130          38          20
5140          38          19
5150          36          23
5160          38          22
5170          43          19
5180          38          19
5190          39          22
5200          37          19
5210          39          22
5220          34          19
5230          39          18
5240          38          26
5250          39          20
5260          33          25
5270          35          21
5280          37          21
5290          37          19
5300          34          16
5310          39          18
5320          32          27
5330          38          16
5340          34          23
5350          38          25
5360          38          19
5370          37          23
5380          36          22
5390          38          22
5400          40          24
5410          36          23
5420          37          20
5430          37          23
5440          38          20
5450          38          23
5460          41          18
5470          38          23
5480          37          20
5490          38          25
5500          37          23
5510          34          23
5520          39          21
5530          39          22
5540          38          21
5550          36          25
5560          41          19
5570          40          20
5580          38          25
5590          39          20
5600          43          20
5610          40          24
5620          42          21
5630          38          18
5640          37          17
5650          40          20
5660          41          22
5670          38          21
5680          40          19
5690          42          21
5700          40          19
5710          35          22
5720          40          21
5730          42          20
5740          37          22
5750          39          20
5760          42          22
5770          41          20
5780          36          25
5790          38          25
5800          41          20
5810          37          23
5820          35          25
5830          41          19
5840          39          22
5850          40          23
5860          39          23
5870          43          18
5880          35          18
5890          40          20
5900          39          21
5910          42          18
5920          41          19
5930          39          23
5940          40          24
5950          43          17
5960          39          21
5970          37          19
5980          37          18
5990          40          22
6000          41          21
6010          41          22
6020          35          23
6030          39          16
6040          40          20
6050          39          25
6060          39          23
6070          36          22
6080          39          21
6090          35          23
6100          41          23
6110          33          22
6120          38          22
6130          42          19
6140          40          20
6150          42          19
6160          41          20
6170          37          22
6180          38          23
6190          39          20
6200          39          19
6210          37          23
6220          40          17
6230          40          17
6240          39          18
6250          42          20
6260          38          20
6270          40          21
6280          39          22
6290          38          19
6300          41          19
6310          36          22
6320          40          25
6330          39          16
6340          34          22
6350          38          21
6360          40          21
6370          37          21
6380          42          20
6390          39          20
6400          41          21
6410          38          23
6420          40          20
6430          41          24
6440          40          23
6450          42          20
6460          41          17
6470          38          22
6480          40          18
6490          42          18
6500          42          20
6510          38          21
6520          42          19
6530          40          23
6540          38          20
6550          40          20
6560          36          21
6570          39          22
6580          41          19
6590          37          24
6600          41          20
6610          42          20
6620          41          20
6630          36          23
6640          36          20
6650          41          19
6660          41          23
6670          40          24
6680          41          18
6690          41          17
6700          39          23
6710          40          22
6720          41          18
6730          36          25
6740          37          21
6750          41          20
6760          40          20
6770          39          23
6780          38          21
6790          38          21
6800          39          23
6810          42          20
6820          38          24
6830          36          25
6840          42          22
6850          42          20
6860          42          20
6870          41          22
6880          42          19
6890          39          21
6900          41          20
6910          41          20
6920          44          19
6930          39          23
6940          41          19
6950          42          20
6960          39          20
6970          39          21
6980          40          19
6990          44          21
7000          38          19
7010          40          19
7020          43          17
7030          39          20
7040          41          21
7050          38          20
7060          38          20
7070          40          18
7080          42          21
7090          39          19
7100          39          17
7110          36          18
7120          36          18
7130          40          20
7140          38          21
7150          39          19
7160          43          22
7170          42          20
7180          38          20
7190          40          20
7200          37          20
7210          43          16
7220          41          22
7230          38          19
7240          37          18
7250          41          22
7260          40          21
7270          38          24
7280          40          23
7290          42          18
7300          38          15
7310          41          22
7320          42          21
7330          38          20
7340          43          19
7350          39          17
7360          43          18
7370          37          24
7380          39          22
7390          37          22
7400          38          22
7410          38          21
7420          41          18
7430          41          19
7440          38          19
7450          43          16
7460          41          21
7470          39          19
7480          40          17
7490          39          19
7500          40          23
7510          38          22
7520          36          22
7530          41          18
7540          38          18
7550          43          21
7560          42          18
7570          39          22
7580          39          22
7590          37          21
7600          43          18
7610          39          22
7620          41          20
7630          36          19
7640          37          16
7650          38          22
7660          37          18
7670          40          18
7680          39          22
7690          39          19
7700          37          26
7710          39          20
7720          43          20
7730          40          20
7740          39          20
7750          37          20
7760          35          22
7770          34          16
7780          35          20
7790          40          22
7800          33          23
7810          37          25
7820          40          24
7830          38          21
7840          36          21
7850          39          19
7860          39          19
7870          36          24
7880          36          18
7890          38          17
7900          35          24
7910          37          22
7920          38          21
7930          36          17
7940          35          19
7950          36          21
7960          33          18
7970          36          20
7980          36          21
7990          40          19
8000          40          21
8010          41          23
8020          38          20
8030          41          19
8040          38          20
8050          37          20
8060          35          21
8070          37          17
8080          40          19
8090          38          18
8100          40          19
8110          40          19
8120          36          22
8130          34          24
8140          36          18
8150          38          17
8160          39          21
8170          42          20
8180          40          20
8190          36          20
8200          35          20
8210          40          19
8220          37          21
8230          41          19
8240          42          22
8250          42          18
8260          40          21
8270          36          21
8280          35          22
8290          35          23
8300          39          21
8310          36          19
8320          37          19
8330          41          20
8340          39          21
8350          39          20
8360          40          20
8370          35          21
8380          40          20
8390          39          23
8400          37          19
8410          36          18
8420          39          18
8430          36          20
8440          37          18
8450          38          17
8460          35          22
8470          39          17
8480          36          21
8490          44          17
8500          37          19
8510          39          20
8520          38          21
8530          36          21
8540          40          18
8550          39          16
8560          41          20
8570          42          20
8580          36          21
8590          38          23
8600          36          19
8610          43          19
8620          36          23
8630          35          21
8640          38          22
8650          42          20
8660          34          24
8670          36          21
8680          39          20
8690          38          22
8700          42          19
8710          39          19
8720          36          18
8730          41          21
8740          39          21
8750          38          20
8760          39          18
8770          41          21
8780          41          20
8790          38          21
8800          37          22
8810          44          20
8820          40          19
8830          41          17
8840          41          19
8850          37          22
8860          37          19
8870          41          22
8880          42          21
8890          41          21
8900          40          18
8910          38          19
8920          41          19
8930          43          20
8940          39          20
8950          37          19
8960          43          22
8970          41          20
8980          41          16
8990          42          20
9000          41          18
9010          37          19
9020          38          21
9030          40          24
9040          41          19
9050          39          21
9060          40          20
9070          40          21
9080          37          23
9090          39          19
9100          38          18
9110          43          19
9120          42          19
9130          40          21
9140          42          23
9150          39          16
9160          37          20
9170          40          19
9180          40          23
9190          42          22
9200          42          21
9210          40          22
9220          39          21
9230          39          20
9240          39          18
9250          40          21
9260          39          23
9270          43          19
9280          40          23
9290          38          22
9300          40          24
9310          37          19
9320          38          20
9330          40          24
9340          38          18
9350          38          24
9360          37          24
9370          41          21
9380          38          21
9390          41          23
9400          39          23
9410          34          19
9420          38          21
9430          37          19
9440          37          18
9450          34          18
9460          40          18
9470          42          17
9480          40          19
9490          37          24
9500          40          21
9510          38          22
9520          42          19
9530          36          22
9540          36          25
9550          37          20
9560          38          19
9570          36          22
9580          40          17
9590          39          19
9600          43          17
9610          37          19
9620          37          23
9630          38          20
9640          35          18
9650          35          24
9660          38          20
9670          36          18
9680          37          22
9690          38          19
9700          38          17
9710          38          18
9720          37          19
9730          36          15
9740          37          19
9750          37          18
9760          33          23
9770          34          15
9780          42          18
9790          33          19
9800          38          18
9810          43          18
9820          35          19
9830          40          18
9840          36          19
9850          39          21
9860          36          21
9870          39          19
9880          38          18
9890          38          15
9900          32          22
9910          38          20
9920          35          23
9930          36          20
9940          38          21
9950          36          17
9960          37          19
9970          35          21
9980          39          17
9990          36          22
10000          37          22
