Time   C(t)   
ps   
0           1           1  2.06774e-09    0.063927
10    0.368326    0.786521   -0.214173   0.0330316
20    0.339367    0.776734     2.34577  0.00213632
30    0.325599    0.772081     1.77518   0.0012406
40    0.314555    0.768348     1.30064  0.00127766
50    0.300046    0.763445     1.63245   0.0013352
60    0.287851    0.759323   -0.405804  0.000627646
70    0.287493    0.759202    -1.16677  0.000498395
80    0.277883    0.755955    -0.45642  0.00103101
90    0.266873    0.752234    -1.30913  0.000576447
100    0.266354    0.752058    -0.45679  0.000855169
110     0.24977    0.746454      -1.403  0.000682752
120    0.252699    0.747444    -2.02333  0.000150855
130    0.246753    0.745434    0.631365  0.00022716
140    0.248156    0.745908   -0.222829  -5.0097e-05
150    0.247755    0.745772   -0.792353  0.000402028
160    0.240115    0.743191    0.536151  -3.6402e-05
170    0.248483    0.746019   -0.463549  0.00043859
180    0.231344    0.740226    -1.50326  0.000577752
190    0.236928    0.742113   -0.746922  9.78924e-05
200    0.229386    0.739565   -0.415016  0.000950883
210     0.21791    0.735686   -0.696723  0.000595564
220    0.217475    0.735539    -1.74111  -6.86243e-05
230    0.219282     0.73615   -0.701814  0.000190952
240    0.213655    0.734248    -2.31156  0.00049306
250    0.209421    0.732817    -1.60061  -0.000187919
260    0.217414    0.735519   -0.988521  3.04937e-05
270    0.208811    0.732611    0.246065  0.000382011
280    0.209774    0.732937    -2.64601  9.4109e-05
290    0.206929    0.731975    -1.41434  0.000644815
300    0.196877    0.728578    -2.36056  0.000391349
310    0.199102     0.72933    -3.87977  -0.000576455
320    0.208406    0.732474     -1.8912  -6.73719e-05
330     0.20045    0.729785    -2.12785  0.000846111
340    0.191484    0.726755     -3.4997  0.000748422
350    0.185481    0.724727    -4.92078  0.000231588
360    0.186852     0.72519    -2.26581  -0.000485767
370    0.195197     0.72801    0.621598  -0.000386817
380    0.194589    0.727805    -1.51159  0.000367311
390     0.18785    0.725527    -2.83765  0.000160908
400    0.191371    0.726717    -2.88632  0.000340273
410    0.181045    0.723227    -1.93598  0.000347373
420    0.184423    0.724369   -0.800593  -0.000409683
430    0.189239    0.725996    -2.08177  4.08642e-05
440    0.183606    0.724093    0.336465  0.000155115
450    0.186136    0.724948   -0.660919  0.000500441
460    0.173597     0.72071  -0.0879231  0.000407293
470     0.17799    0.722195    -1.03807  -0.000454189
480    0.182681     0.72378    0.715238  0.000135326
490    0.175284     0.72128    -2.36361  0.000344039
500      0.1758    0.721455   0.0984306  -0.00014552
510    0.178194    0.722264   -0.517636  8.54492e-05
520    0.174091    0.720877   -0.138539  -1.47298e-06
530    0.178224    0.722274    -1.94117  0.000339153
540    0.167308    0.718585   -0.989678  0.000273854
550    0.172747    0.720423    -1.18182  -0.000421137
560    0.175731    0.721431    -2.55774  1.35809e-05
570    0.172475    0.720331     -1.1827  0.000216861
580    0.171394    0.719966   0.0494813  0.000181049
590    0.168854    0.719107  -0.0445752  0.000312469
600    0.165144    0.717854    0.144789  6.51143e-05
610    0.167552    0.718667    -1.08762  8.7478e-05
620    0.163395    0.717262    -1.13449  0.000160424
630    0.164343    0.717583   0.0968576  0.000117142
640    0.161052    0.716471    -0.85056  0.000248977
650    0.159364      0.7159   -0.282841  0.000337601
660      0.1543    0.714189    -1.56087  0.000103246
670    0.157299    0.715202    0.664391  -0.00013858
680    0.157071    0.715125   -0.899509  0.000559744
690    0.146104    0.711419     -1.8924  0.000398368
700    0.149104    0.712433    -2.46359  -0.000101279
710     0.14813    0.712103   -0.852134  0.000119683
720     0.14671    0.711624    -1.70494  4.60669e-05
730    0.147208    0.711792   -0.142057  0.000238509
740     0.14194    0.710012   -0.993844  0.000201667
750    0.143175    0.710429    0.523005  -5.02616e-06
760    0.142041    0.710046   -0.283304  -0.000509665
770    0.153368    0.713874     1.08758  -0.000242716
780    0.146895    0.711686    -1.04446  0.000283668
790    0.147695    0.711956   -0.428439  -0.000496878
800    0.156833    0.715045    -1.61491  -5.78038e-05
810    0.148851    0.712347     -1.3283  0.000269338
820    0.151446    0.713224    -1.37738  0.000195811
830    0.144935    0.711024    -1.09179  0.000337813
840    0.144689    0.710941    -1.18635  -0.000319753
850     0.15133    0.713185    -1.47241  -0.00017022
860    0.148094    0.712091   -0.619561  -8.10936e-05
870    0.152952    0.713733    -1.94774  5.42767e-05
880    0.147008    0.711724    -1.70971  0.000407125
890    0.144809    0.710981    -0.76155  0.000159921
900     0.14381    0.710644    -1.04645  0.000582188
910    0.133165    0.707046    -2.22774  0.000175688
920    0.140296    0.709456    -2.70561  -0.000260873
930    0.138383    0.708809     -0.6197  0.000199136
940    0.136313     0.70811   -0.904092  0.000108757
950    0.136208    0.708074    -3.89041  0.000298501
960    0.130343    0.706092     -1.9005  0.000594629
970    0.124315    0.704055     -1.9941  0.000406103
980    0.122221    0.703348   -0.855559  -6.40385e-05
990    0.125596    0.704488    -3.65418  -7.14198e-05
1000     0.12365     0.70383    -1.70985  0.000369938
1010    0.118197    0.701987   -0.998473  -0.000231931
1020    0.128288    0.705398    -3.41837  -0.000346084
1030    0.125119    0.704327    -2.75498  0.000294418
1040      0.1224    0.703408    -1.66427  0.000325705
1050    0.118605    0.702125     -1.8535  -3.36595e-05
1060    0.123073    0.703635    -1.71221  -6.39327e-05
1070    0.119883    0.702557    -0.81184  0.000472901
1080    0.113615    0.700439   -0.669343  0.000166349
1090    0.116556    0.701433   -0.811701  -0.00020978
1100    0.117811    0.701857    -2.32957  -5.63227e-05
1110    0.117683    0.701814    -3.04127  0.000136305
1120    0.115085    0.700936   -0.766038  7.47532e-05
1130    0.116188    0.701308   -0.529716  0.000314692
1140    0.108791    0.698809   -0.196792  0.000469674
1150    0.106794    0.698134   -0.338594  -8.67285e-05
1160    0.110525    0.699395    0.227967  0.000169339
1170    0.103407    0.696989    -0.85954  -3.27688e-05
1180    0.111181    0.699616    -2.52051  -0.000537223
1190    0.114152     0.70062   -0.861946  0.000184973
1200    0.107481    0.698366     1.08211  0.00068344
1210    0.100483    0.696001  -0.00742861  0.000248263
1220    0.102516    0.696688   -0.623588  -0.000539348
1230     0.11127    0.699646    0.463687  -0.000399515
1240    0.110506    0.699388    0.605814  -4.09435e-05
1250    0.112089    0.699923    -1.19524  0.000538924
1260   0.0997279    0.695746    0.324616  0.000876684
1270   0.0945552    0.693998    -0.38759  0.000258695
1280    0.094554    0.693997   -0.387081  -0.000290811
1290    0.100371    0.695963    -0.86227  -0.000629639
1300    0.107147    0.698253    0.462946  0.000212222
1310    0.096127    0.694529   -0.624653  0.000558845
1320   0.0959699    0.694476     0.37014  -6.32539e-05
1330   0.0973921    0.694956     2.35991  -1.58817e-05
1340   0.0962875    0.694583     1.41078  -6.35713e-05
1350   0.0986635    0.695386     2.59577  3.95238e-05
1360    0.095497    0.694316     2.31013  0.000261499
1370   0.0934335    0.693618    0.320127  4.76632e-05
1380   0.0945438    0.693994   0.0355485  -0.000111129
1390   0.0956561     0.69437   -0.438622  7.18076e-05
1400   0.0931076    0.693508    0.746829  -0.000287002
1410    0.101396    0.696309    0.649533  0.000159903
1420   0.0899096    0.692427   -0.438947  0.000718457
1430    0.087027    0.691453   -0.247779  -9.53704e-05
1440    0.091817    0.693072    -0.58061  -9.50884e-05
1450   0.0889288    0.692096     2.12104  -3.16314e-05
1460   0.0924496    0.693286   -0.202902  7.6741e-07
1470   0.0889134    0.692091     1.97822  0.000289736
1480   0.0866549    0.691328    0.508054  3.29629e-05
1490   0.0882542    0.691868     1.88199  0.000347451
1500   0.0797058    0.688979    0.130346  0.000186349
1510   0.0845272    0.690608   -0.628866  -0.000175794
1520   0.0832217    0.690167    0.745255  0.000219603
1530   0.0801351    0.689124   -0.297097  0.000187619
1540   0.0794693    0.688899    -0.96091  -0.000346684
1550   0.0870688    0.691467    0.885345  0.000367046
1560   0.0721284    0.686418     1.55115  0.000171631
1570   0.0836362    0.690307    0.789391  -0.000517769
1580   0.0824838    0.689918      1.6428  0.000237531
1590   0.0788856    0.688702     1.78548  0.000319515
1600   0.0760935    0.687758     1.50187  -0.00012045
1610   0.0812946    0.689516    0.599519  0.000165741
1620   0.0727787    0.686638    0.601046  0.000713519
1630   0.0670242    0.684693     1.50308  -0.000374083
1640   0.0802603    0.689166    0.598639  -0.000628113
1650   0.0795864    0.688939     1.16701  0.000289215
1660    0.074476    0.687212     2.35292  1.90474e-06
1670   0.0795484    0.688926     1.73574  9.30954e-05
1680   0.0726141    0.686582     1.78576  0.000339806
1690   0.0727522    0.686629    0.173787  -0.000401552
1700   0.0806452    0.689296     0.74007  0.000176208
1710   0.0692281    0.685438    0.173232  8.44888e-05
1720   0.0789554    0.688725     2.49324  -0.000659224
1730   0.0824125    0.689894    0.975097  0.000491155
1740   0.0691323    0.685406    -0.49058  0.000200776
1750    0.078397    0.688537   -0.303763  0.000119559
1760   0.0667411    0.684597    0.598963  0.000493016
1770   0.0685367    0.685204    0.029161  -0.000171473
1780   0.0701706    0.685757   -0.634374  -0.000146852
1790   0.0714737    0.686197    -1.10855  -2.19576e-05
1800   0.0706097    0.685905   -0.113289  -2.21871e-05
1810   0.0719175    0.686347   -0.161868  5.32627e-05
1820   0.0695445    0.685545  -0.0671177  -4.73633e-05
1830   0.0728648    0.686667   -0.541196  -0.000231781
1840   0.0741801    0.687112    0.453365  0.000204418
1850   0.0687764    0.685285    -1.10984  -2.26278e-05
1860   0.0746327    0.687265     1.40101  -0.000156755
1870   0.0719115    0.686345      1.5901  0.000348369
1880   0.0676653     0.68491    0.691307  0.000560221
1890   0.0607071    0.682558     1.97123  0.000324683
1900   0.0611716    0.682715     1.82846  -0.000325838
1910   0.0672238    0.684761     2.44314  -0.000427989
1920   0.0697314    0.685608    0.215422  0.000376887
1930   0.0596861    0.682213     2.68163  0.000207116
1940   0.0655891    0.684208     2.34866  0.000115044
1950   0.0573852    0.681436      1.3083  2.92592e-05
1960   0.0650039     0.68401     2.01564  -0.000728695
1970   0.0719591    0.686361     1.87181  7.21075e-05
1980   0.0635618    0.683523      1.4476  0.000763827
1990   0.0566826    0.681198     2.25405  0.000252222
2000   0.0585173    0.681818     2.34862  -4.65432e-05
2010   0.0576134    0.681513     1.68485  -0.000312866
2020   0.0647746    0.683933     3.05712  -0.000390494
2030   0.0654233    0.684152    0.876366  0.000322169
2040   0.0583312    0.681755   -0.401431  0.00019328
2050   0.0615577    0.682846     0.87706  -0.000254057
2060   0.0634124    0.683473     1.91798  1.29454e-05
2070   0.0612988    0.682758    0.546496  0.000177002
2080   0.0598723    0.682276   -0.592599  -0.000168871
2090   0.0646762      0.6839    -1.06728  -0.000168889
2100   0.0632501    0.683418    0.212784  0.000333748
2110   0.0580013    0.681644   -0.971463  6.49383e-05
2120   0.0619513    0.682979    -2.25241  -0.000351984
2130   0.0650409    0.684023    -1.06936  -0.000248387
2140   0.0669191    0.684658     -1.2114  3.84487e-06
2150    0.064964    0.683997   -0.310522  0.000615062
2160   0.0546178      0.6805  -0.0239078  0.000231305
2170   0.0603379    0.682433   -0.688507  -0.000187425
2180   0.0583663    0.681767   -0.357018  0.000302628
2190   0.0542854    0.680388     0.30698  -0.000495679
2200   0.0682799    0.685118    -1.59285  -0.000337531
2210    0.061036    0.682669    -0.45362  6.51058e-05
2220   0.0669778    0.684677    -1.02333  -2.20457e-05
2230   0.0614769    0.682818   -0.121298  0.000162504
2240   0.0637277    0.683579    -1.16439  -0.000331358
2250   0.0681041    0.685058    0.112803  -0.000199338
2260   0.0677145    0.684926    0.256456  0.000127531
2270   0.0655535    0.684196    -1.21311  -0.000156085
2280   0.0708362    0.685981    -2.01983  -0.000173713
2290   0.0690277     0.68537    -2.96804     0.00027
2300   0.0654362    0.684156    -2.35109  0.000430882
2310   0.0604101    0.682458    -2.06513  3.95853e-05
2320   0.0646445    0.683889   -0.882268  0.000352804
2330    0.053354    0.680073   -0.357711  0.000254348
2340   0.0595575     0.68217    -1.02393  -0.000567416
2350   0.0647023    0.683908    -1.35769  0.000130221
2360   0.0569531     0.68129   -0.835262  0.000569462
2370   0.0533131    0.680059    -1.68751  4.09612e-05
2380   0.0561339    0.681013   -0.314363  7.75397e-05
2390   0.0517623    0.679535    0.065705  0.000167407
2400   0.0527857    0.679881    -1.87905  -0.000228827
2410   0.0563388    0.681082    0.158651  0.000583863
2420   0.0411085    0.675935    0.208294  0.000538916
2430   0.0455605    0.677439    0.443275  -5.62521e-05
2440   0.0422335    0.676315     1.86676  -1.15167e-05
2450   0.0457908    0.677517      1.4389  0.000388527
2460    0.034463    0.673689    0.872107  7.93386e-05
2470   0.0442041    0.676981  -0.0308052  -0.000711288
2480   0.0486887    0.678497    -1.54918  0.000143607
2490   0.0413319     0.67601     1.01146  0.000234515
2500   0.0439984    0.676911    -1.02712  0.00013522
2510   0.0386275    0.675096    -1.87891  0.000171676
2520   0.0405649    0.675751    -1.07344  0.000126808
2530   0.0360914    0.674239   0.0638536  0.000181755
2540   0.0369298    0.674523     0.63236  -0.000405644
2550   0.0442042    0.676981    -1.26497  -0.000599603
2560   0.0489219    0.678575    -2.35637  4.37303e-05
2570   0.0433296    0.676685   -0.838826  0.000190864
2580   0.0451046    0.677285   -0.128287  0.000413713
2590   0.0350554    0.673889    -1.59595  6.23193e-05
2600   0.0438582    0.676864    -1.50333  0.000304691
2610   0.0289616     0.67183    -0.50581  0.000517381
2620   0.0335106    0.673367    -1.12211  -0.000827275
2630   0.0455071    0.677421    -1.97806  -1.02116e-05
2640   0.0337148    0.673436    -1.31193  0.000388827
2650   0.0377305    0.674793    -2.35605  1.77337e-05
2660   0.0333602    0.673316    -2.40245  0.000531103
2670   0.0271085    0.671203    -2.68619  4.59349e-05
2680   0.0324415    0.673006    -1.40729  -0.000121808
2690   0.0295446    0.672027    -2.92381  -0.00015082
2700   0.0354579    0.674025    -2.59403  -0.000488819
2710    0.039321    0.675331     -1.4567  0.00030925
2720   0.0292729    0.671935    -1.69103  0.000280864
2730   0.0337037    0.673432    -1.31443  -0.000481376
2740   0.0389004    0.675188    -1.36241  -6.70372e-05
2750   0.0350445    0.673885    -1.88257  6.4568e-05
2760    0.037609    0.674752   -0.604494  -0.000162125
2770    0.038287    0.674981    0.106786  8.38801e-05
2780   0.0359314    0.674185     2.33413  -3.9568e-05
2790   0.0390783    0.675249    0.485095  -0.000105864
2800   0.0380487    0.674901     1.24329  0.000417425
2810   0.0307298    0.672427     1.19739  0.000370441
2820   0.0306399    0.672397     1.10292  -0.000277496
2830   0.0362797    0.674303    -1.69603  0.000171658
2840   0.0272067    0.671237    -1.03101  0.000439251
2850   0.0274947    0.671334   -0.746713  -0.000182266
2860    0.030852    0.672468   -0.605652  0.000192055
2870   0.0236536    0.670036   -0.841557  0.000220679
2880   0.0264385    0.670977   -0.557767  -0.000538924
2890   0.0344321    0.673678     1.38268  -9.6358e-05
2900   0.0283656    0.671628    -1.98061  0.000269444
2910   0.0290432    0.671857     -1.2225  -0.000106596
2920   0.0304975    0.672349    -1.98172  0.000222469
2930   0.0245938    0.670353    -2.02747  7.71076e-05
2940   0.0289554    0.671827    -1.12775  0.000107187
2950   0.0224501    0.669629   -0.415548  -0.000146191
2960   0.0318792    0.672816    -1.12947  4.93651e-05
2970   0.0214628    0.669295    -2.78631  0.000233457
2980   0.0272101    0.671238    -2.21859  -0.000634215
2990   0.0341471    0.673582    -1.41409  -0.000489215
3000   0.0369944    0.674544    -2.83609  0.000106773
3010   0.0320117     0.67286    -3.26215  0.000175176
3020   0.0334908     0.67336    -1.69848  0.000421746
3030   0.0235767     0.67001    -2.97683  0.000481191
3040    0.023867    0.670108     -2.8812  -0.000472452
3050   0.0330258    0.673203    -2.78867  -0.000236349
3060    0.028594    0.671705    -1.36671  0.000246173
3070   0.0281023    0.671539    -1.65161  0.000187769
3080   0.0248386    0.670436    -1.13011  0.000247602
3090   0.0231503    0.669866    -1.17712  1.02558e-05
3100   0.0246335    0.670367    -1.17814  -3.91975e-05
3110   0.0239342    0.670131    -1.46202  0.000119788
3120   0.0222377    0.669557    -1.13081  1.04144e-05
3130   0.0237259     0.67006   -0.562812  5.06349e-05
3140   0.0212251    0.669215    -1.65236  0.000190423
3150   0.0199175    0.668773    -0.23049  0.00024112
3160   0.0164027    0.667585    0.244377  -4.90741e-05
3170   0.0208989    0.669105    -1.65314  -0.000199286
3180   0.0203884    0.668932    -1.79504  0.000362893
3190   0.0136411    0.666652    -1.88877  9.16226e-05
3200   0.0185559    0.668313    -1.79518  -0.000149295
3210    0.016627    0.667661    -1.79578  0.000284065
3220   0.0128746    0.666393   -0.847574  0.000264542
3230   0.0113362    0.665873   -0.467783  -4.8545e-05
3240   0.0138455    0.666721    -1.46424  -0.000109286
3250   0.0135219    0.666612    0.526361  0.000408369
3260  0.00567813    0.663961   -0.136155  0.000459903
3270  0.00432381    0.663503    -1.22635  -7.83598e-05
3280  0.00724533     0.66449     0.24234  4.42064e-05
3290  0.00343968    0.663204    -1.84376  0.000186914
3300  0.00350706    0.663227   -0.611438  -1.69312e-05
3310  0.00377831    0.663319    -1.93934  0.000546861
3320  -0.00743016    0.659531   -0.941631  -0.000212161
3330  0.00802152    0.664753   -0.566099  -0.000467813
3340   0.0019261    0.662693  -0.0904928  0.000198527
3350  0.00405097    0.663411    0.193344  0.000282231
3360  -0.00371852    0.660785    0.383956  0.000210062
3370  -0.000150265    0.661991   -0.801495  -0.000160864
3380  -0.000501235    0.661872    0.098315  -0.000140952
3390  0.00266878    0.662944    -0.18728  -0.000255229
3400  0.00460335    0.663598   -0.662007  -7.94092e-05
3410  0.00425697     0.66348    -1.98912  0.000502954
3420  -0.00545573    0.660198     -1.8921  0.000347408
3430  -0.00269118    0.661132    -1.23088  7.80512e-05
3440  -0.00701676     0.65967   -0.139071  -0.000256852
3450  0.00244586    0.662868    -1.08954  -0.000204224
3460  -0.00293228    0.661051    -2.46283  0.000234489
3470  -0.00224392    0.661283    -1.60979  -4.79277e-05
3480  -0.00197372    0.661375    -3.93291  -0.000163818
3490  0.00103245    0.662391    -2.79543  -0.000343219
3500  0.00489065    0.663695    -2.89069  -0.000175388
3510  0.00454021    0.663576     -3.0813  0.000954559
3520  -0.0142005    0.657243    -3.83598  7.7575e-05
3530  0.00298871    0.663052    -3.46026  -0.000407055
3540  -0.00605944    0.659994    -2.60662  0.000555812
3550  -0.00812752    0.659295     -2.1796  0.00022843
3560   -0.010628     0.65845    -3.22139  0.000229145
3570  -0.0127104    0.657746    -3.31624  -0.000591464
3580  0.00120123    0.662448    -1.23454  -4.49736e-06
3590  -0.0126205    0.657777   -0.947694  0.000239427
3600  -0.0035873    0.660829   -0.948991  -0.000368907
3610  -0.00524233     0.66027    -2.22841  -0.000252813
3620  0.00146896    0.662538    -2.08753  6.95944e-05
3630  -0.00663422      0.6598    -2.13342  0.000154762
3640  -0.00162628    0.661492   -0.618936  9.15609e-05
3650  -0.00846544    0.659181   -0.996135  9.0926e-05
3660  -0.0034448    0.660878   -0.856183  -0.000286499
3670  -0.00273545    0.661117   -0.903605  3.73104e-05
3680  -0.00419101    0.660625   -0.571422  -6.11993e-06
3690  -0.00261305    0.661159   -0.524185  -0.000103721
3700  -0.00211658    0.661326    -1.28307  0.000135388
3710  -0.00532081    0.660244    -1.94684  0.000429903
3720  -0.0107146    0.658421   -0.665755  -0.000464533
3730  0.00396984    0.663383    -2.13801  0.000279506
3740  -0.0163048    0.656531    -1.42432   0.0007159
3750  -0.0103482    0.658545    -2.04066  -0.000124744
3760  -0.0138099    0.657375     -1.0919  -0.000224833
3770  -0.0058515    0.660064    -2.08998  -0.000378783
3780  -0.00623422    0.659935    -1.33133  0.000148616
3790  -0.00882381     0.65906   -0.856462   0.0002594
3800  -0.0114222    0.658182    -1.04555  -5.26458e-06
3810  -0.00871852    0.659095    -1.33068  -0.000304021
3820  -0.0053418    0.660236    -2.04233  -0.000227249
3830  -0.00417355    0.660631   -0.479357  0.000549991
3840  -0.0163416    0.656519    -1.90016  0.000361385
3850  -0.0114012    0.658189    -1.33188  -0.000282937
3860  -0.0106829    0.658431   -0.857526   0.0001403
3870  -0.0142072     0.65724   -0.431517  -0.000105741
3880  -0.00856808    0.659146     1.03647  -4.45331e-06
3890  -0.0141182     0.65727   -0.432027  0.000443669
3900  -0.0174415    0.656147  -0.00472214  0.000164198
3910  -0.0174021    0.656161   -0.857989  -0.000251764
3920  -0.0124062    0.657849   -0.954035  -0.000556764
3930  -0.00626685    0.659924    -1.09658  6.52559e-06
3940  -0.0125367    0.657805   -0.715909  -7.3739e-05
3950  -0.00479207    0.660422    -2.32894  -0.000140847
3960  -0.00971976    0.658757    -1.38088  0.000186967
3970  -0.0085314    0.659159    0.183161  -0.000392064
3980  -0.00187848    0.661407    0.514419  -5.10318e-05
3990  -0.00751076    0.659503   -0.669505  0.000541279
4000  -0.0127041    0.657748   -0.999978  -0.000302937
4010  -0.00145203    0.661551   -0.196954  -0.000428528
4020  -0.00413351    0.660645    0.703874  8.50706e-05
4030  -0.00315344    0.660976   -0.149255  -8.67108e-05
4040  -0.0023993    0.661231   -0.576606  0.000361852
4050  -0.0103905     0.65853    -1.47683  -0.000191041
4060  0.00142152    0.662522     0.89222  -0.000132284
4070  -0.0077448    0.659424    -1.09713  0.000605882
4080  -0.0106961    0.658427   0.0879941  0.000492566
4090  -0.0175961    0.656095    0.610836  1.79983e-05
4100  -0.0110561    0.658305   -0.908096  -0.000283104
4110   -0.011934    0.658009    0.181586  0.000483933
4120  -0.0207348    0.655034    0.134997  -0.000296693
4130  -0.00600018    0.660014   -0.340376  -0.000634568
4140  -0.00804339    0.659323    0.181819  -0.000158254
4150  -0.0028351    0.661084   -0.672792  0.00039299
4160  -0.0159032    0.656667     0.32487  0.000874374
4170  -0.0203226    0.655174    0.135184  -0.000428034
4180  -0.00734251     0.65956    0.558971  -0.000369048
4190  -0.0129416    0.657668    0.180847  6.49912e-05
4200  -0.00864233    0.659121  -0.00981257  -0.000655424
4210  0.000166843    0.662098    0.367524  6.54057e-05
4220  -0.00995044    0.658679    0.464219  0.000811711
4230  -0.0160674    0.656612   -0.293649  0.000256076
4240   -0.015072    0.656948   -0.151476  7.89595e-05
4250  -0.0176466    0.656078   -0.388493  0.000162443
4260  -0.0183208     0.65585       1.129  6.75397e-05
4270  -0.0189974    0.655621   -0.198389  -0.000183642
4280   -0.014648    0.657091    -2.28337  -0.000663563
4290  -0.0057261    0.660107     -1.1955  -0.000389145
4300  -0.00686508    0.659722   -0.910456  -9.05379e-05
4310  -0.00391535    0.660719    -1.00581  0.000114453
4320  -0.00915415    0.658948    0.464036  2.96208e-05
4330  -0.00450776    0.660518    -2.23808  -0.000150899
4340  -0.00613616    0.659968    -2.42818  -0.000527725
4350  0.00604674    0.664085    -1.90738  0.000188016
4360  -0.00989648    0.658697    -1.57353  0.000161852
4370   0.0028097    0.662991    -3.37662  -0.000395547
4380  -0.00198554    0.661371    -3.18767  0.000895424
4390  -0.0150988    0.656939     -1.0995  0.000323148
4400  -0.0084485    0.659187    -1.66957  -0.000286482
4410  -0.00936914    0.658875   -0.153513  0.000165882
4420  -0.0117661    0.658065   -0.675153  0.000215529
4430  -0.0136797    0.657419    -2.09767  4.39066e-05
4440  -0.0126443    0.657769   -0.770598  0.000192434
4450  -0.0175284    0.656118   -0.201305  0.000143139
4460  -0.0155071    0.656801   -0.296889  -0.000425371
4470  -0.00902099    0.658993   -0.771847  0.000441931
4480  -0.0243457    0.653814   -0.770737  0.000627963
4490  -0.0215803    0.654749  -0.0132849  -0.000675503
4500  -0.0108356     0.65838     -1.5788  -0.000901746
4510  -0.00354533    0.660844   -0.963386  0.000494312
4520  -0.0207219    0.655039   -0.107432  0.000243439
4530  -0.00841411    0.659198    -1.39046  -0.000618378
4540  -0.00835432    0.659218    -1.57881  0.00045888
4550  -0.0175917    0.656097   -0.488381  0.000711464
4560  -0.0225836    0.654409    -0.39275  -0.00025664
4570  -0.0124589    0.657831   -0.727018  -9.19401e-05
4580  -0.0207448    0.655031   0.0798006  0.000576931
4590  -0.0239975    0.653932     1.26507  0.000135635
4600  -0.0234575    0.654114   -0.821676  -0.000371693
4610  -0.0165637    0.656444    0.267358  0.000251252
4620  -0.0284825    0.652416   -0.346764  0.000326923
4630  -0.0231021    0.654234    0.363452  -0.000717884
4640  -0.0141249    0.657268    0.313715  -0.000361834
4650  -0.0158654     0.65668   -0.302767  0.000328263
4660  -0.0206901    0.655049   -0.870301  0.000162222
4670  -0.0191099    0.655583   -0.586603  0.000498148
4680  -0.0306531    0.651682    0.409809  0.000215053
4690  -0.0234109     0.65413     1.16638  3.67284e-05
4700  -0.0313877    0.651434   -0.207183  0.000164841
4710  -0.0267078    0.653016     1.49847  0.000452037
4720  -0.0404284    0.648379     1.83218  0.000348078
4730  -0.0336693    0.650663     1.49944  -0.00029963
4740  -0.0344358    0.650404    0.788302  -0.00024933
4750  -0.0286827    0.652348  -0.0185154  -7.9762e-05
4760  -0.0328406    0.650943    0.360303  0.000337998
4770  -0.0354427    0.650064    0.597134   5.082e-05
4780   -0.033857      0.6506    0.408095  -0.000316605
4790  -0.0291106    0.652204   -0.209174  0.000327769
4800  -0.0404124    0.648384    -2.53067  0.000327496
4810  -0.0356605     0.64999   -0.776985  -9.27337e-05
4820  -0.0385577    0.649011    -1.25074  -2.76279e-05
4830  -0.0351079    0.650177   -0.730582  -0.000372169
4840  -0.0311143    0.651526      -1.774  -0.000160803
4850  -0.0318919    0.651264   -0.873774  0.000557575
4860  -0.0422658    0.647758    -1.39356  0.000425318
4870  -0.0403983    0.648389    -1.15696  -0.000641879
4880  -0.0294282    0.652096    -1.15854  -0.000241429
4890  -0.0355697    0.650021    -1.25324  0.000252743
4900  -0.0344831    0.650388    0.595422  0.000160291
4910  -0.0387755    0.648937    -1.06323  0.000281746
4920   -0.040118    0.648484   -0.162585  -9.50882e-05
4930  -0.0368737     0.64958   -0.447162  -2.73369e-05
4940  -0.0395713    0.648668    -1.11088  -2.80248e-05
4950  -0.0363132    0.649769   -0.305777  -0.000217787
4960  -0.0352155     0.65014    0.594728  8.0635e-05
4970  -0.0379259    0.649224   -0.590075  0.000339806
4980  -0.0420117    0.647844    -0.21098  0.000436737
4990  -0.0466607    0.646272    -0.96857  0.000533669
