Time   Number   
ps   
0          25          30
10          23          31
20          26          36
30          20          34
40          23          30
50          25          36
60          22          32
70          24          29
80          27          30
90          26          31
100          24          32
110          21          38
120          23          35
130          27          25
140          22          24
150          27          26
160          24          27
170          23          27
180          25          28
190          22          33
200          22          32
210          25          29
220          25          31
230          24          33
240          21          32
250          27          30
260          20          37
270          27          25
280          25          29
290          22          31
300          24          32
310          21          34
320          24          29
330          24          28
340          24          30
350          21          27
360          21          30
370          21          32
380          25          36
390          22          30
400          21          33
410          26          27
420          22          29
430          24          27
440          26          34
450          26          29
460          20          33
470          21          31
480          20          32
490          22          32
500          21          35
510          23          34
520          22          32
530          19          30
540          21          38
550          25          30
560          23          34
570          26          27
580          23          28
590          21          31
600          23          29
610          26          28
620          24          32
630          24          28
640          22          30
650          25          26
660          20          33
670          24          31
680          23          31
690          20          36
700          25          30
710          21          30
720          21          29
730          24          25
740          21          27
750          23          27
760          27          25
770          22          30
780          26          27
790          20          28
800          22          31
810          19          36
820          21          28
830          26          27
840          26          30
850          20          34
860          21          34
870          23          30
880          20          31
890          21          34
900          22          35
910          25          29
920          19          36
930          23          28
940          22          27
950          25          26
960          24          33
970          21          32
980          21          30
990          25          29
1000          24          27
1010          22          31
1020          25          30
1030          23          29
1040          22          23
1050          20          32
1060          23          27
1070          21          31
1080          23          31
1090          21          31
1100          22          26
1110          19          30
1120          23          27
1130          20          35
1140          21          28
1150          21          30
1160          20          23
1170          22          28
1180          23          27
1190          24          25
1200          23          30
1210          19          27
1220          18          34
1230          22          29
1240          23          22
1250          21          25
1260          24          29
1270          24          28
1280          24          25
1290          24          30
1300          22          29
1310          24          28
1320          25          27
1330          26          24
1340          24          27
1350          24          24
1360          26          25
1370          23          25
1380          20          23
1390          22          21
1400          23          24
1410          22          28
1420          25          23
1430          21          25
1440          22          28
1450          22          29
1460          18          31
1470          21          24
1480          24          30
1490          23          28
1500          26          21
1510          18          33
1520          23          25
1530          18          29
1540          18          32
1550          21          30
1560          20          30
1570          21          24
1580          23          27
1590          22          29
1600          21          28
1610          21          30
1620          26          23
1630          24          25
1640          21          28
1650          25          25
1660          23          30
1670          21          32
1680          22          25
1690          23          34
1700          18          31
1710          22          30
1720          23          30
1730          20          30
1740          21          29
1750          25          23
1760          18          30
1770          21          25
1780          19          29
1790          18          29
1800          21          25
1810          24          23
1820          23          28
1830          18          31
1840          17          36
1850          21          29
1860          20          32
1870          28          25
1880          23          26
1890          26          26
1900          23          28
1910          23          24
1920          25          22
1930          19          28
1940          21          30
1950          24          28
1960          21          26
1970          21          25
1980          24          24
1990          22          32
2000          22          30
2010          22          24
2020          18          32
2030          22          23
2040          22          26
2050          24          26
2060          23          26
2070          19          27
2080          19          32
2090          26          22
2100          23          26
2110          23          26
2120          24          28
2130          27          26
2140          22          29
2150          22          30
2160          20          29
2170          24          24
2180          23          24
2190          23          30
2200          23          31
2210          22          25
2220          23          30
2230          21          25
2240          18          29
2250          24          21
2260          20          25
2270          21          29
2280          19          28
2290          22          31
2300          21          36
2310          21          28
2320          23          30
2330          17          35
2340          23          29
2350          25          30
2360          26          25
2370          18          30
2380          27          28
2390          21          32
2400          22          30
2410          26          31
2420          25          26
2430          26          23
2440          23          28
2450          22          31
2460          22          32
2470          22          30
2480          24          27
2490          23          30
2500          24          29
2510          21          34
2520          25          33
2530          26          31
2540          23          27
2550          24          29
2560          22          30
2570          22          30
2580          25          30
2590          23          30
2600          25          28
2610          24          23
2620          27          24
2630          24          26
2640          20          33
2650          26          23
2660          25          25
2670          20          29
2680          23          28
2690          23          25
2700          21          35
2710          20          32
2720          22          34
2730          21          28
2740          21          33
2750          23          30
2760          20          31
2770          23          29
2780          21          29
2790          20          30
2800          27          24
2810          22          24
2820          25          26
2830          21          28
2840          20          27
2850          21          28
2860          18          27
2870          25          22
2880          23          26
2890          24          21
2900          23          22
2910          21          28
2920          23          23
2930          20          29
2940          20          31
2950          22          29
2960          21          27
2970          21          29
2980          25          24
2990          25          23
3000          24          25
3010          20          31
3020          22          29
3030          21          33
3040          22          29
3050          22          33
3060          23          24
3070          23          28
3080          22          22
3090          24          28
3100          19          32
3110          21          26
3120          18          39
3130          22          31
3140          23          30
3150          23          27
3160          22          26
3170          23          26
3180          22          30
3190          21          32
3200          26          22
3210          23          29
3220          26          23
3230          26          28
3240          21          31
3250          25          25
3260          23          26
3270          28          20
3280          17          33
3290          24          27
3300          24          23
3310          25          28
3320          22          25
3330          23          27
3340          24          26
3350          23          30
3360          23          27
3370          21          30
3380          20          35
3390          22          27
3400          22          30
3410          22          30
3420          22          31
3430          23          30
3440          23          26
3450          23          25
3460          23          27
3470          24          22
3480          23          24
3490          20          25
3500          21          27
3510          25          24
3520          21          24
3530          24          30
3540          22          30
3550          25          29
3560          22          32
3570          21          30
3580          23          27
3590          20          27
3600          21          32
3610          22          34
3620          24          27
3630          21          29
3640          20          30
3650          21          28
3660          25          29
3670          21          28
3680          24          30
3690          25          24
3700          26          31
3710          23          29
3720          24          30
3730          25          30
3740          22          31
3750          21          31
3760          20          32
3770          23          30
3780          23          24
3790          22          28
3800          25          25
3810          24          27
3820          23          28
3830          24          30
3840          25          29
3850          23          30
3860          25          30
3870          26          30
3880          23          30
3890          21          28
3900          23          26
3910          24          27
3920          25          24
3930          20          29
3940          25          29
3950          23          30
3960          19          34
3970          23          31
3980          27          29
3990          20          32
4000          21          35
4010          22          35
4020          22          32
4030          25          30
4040          24          33
4050          25          32
4060          21          35
4070          22          34
4080          27          31
4090          21          30
4100          20          34
4110          24          27
4120          23          30
4130          20          30
4140          19          28
4150          20          30
4160          20          24
4170          20          31
4180          24          25
4190          23          27
4200          21          25
4210          24          28
4220          22          32
4230          22          30
4240          20          30
4250          22          27
4260          21          28
4270          19          25
4280          19          28
4290          23          22
4300          19          26
4310          19          27
4320          20          31
4330          22          23
4340          23          26
4350          23          22
4360          19          28
4370          21          31
4380          24          24
4390          19          31
4400          19          29
4410          21          28
4420          19          32
4430          19          34
4440          18          34
4450          23          27
4460          23          29
4470          23          27
4480          21          27
4490          24          26
4500          20          28
4510          23          29
4520          21          23
4530          21          28
4540          23          31
4550          23          33
4560          22          31
4570          20          26
4580          24          23
4590          22          28
4600          23          23
4610          24          23
4620          22          24
4630          22          25
4640          19          27
4650          21          23
4660          24          23
4670          19          23
4680          21          25
4690          18          35
4700          21          28
4710          18          29
4720          24          24
4730          20          31
4740          23          21
4750          24          25
4760          19          31
4770          24          27
4780          23          26
4790          22          28
4800          19          34
4810          23          24
4820          18          31
4830          23          28
4840          21          37
4850          21          32
4860          23          31
4870          24          23
4880          25          24
4890          20          33
4900          22          31
4910          24          23
4920          22          31
4930          23          28
4940          18          34
4950          22          26
4960          20          26
4970          23          30
4980          25          21
4990          23          29
5000          21          30
5010          20          29
5020          18          37
5030          24          32
5040          20          34
5050          22          28
5060          21          25
5070          21          26
5080          24          23
5090          21          34
5100          19          30
5110          21          28
5120          23          24
5130          18          35
5140          21          25
5150          21          28
5160          21          29
5170          21          29
5180          24          26
5190          20          30
5200          20          29
5210          19          28
5220          20          25
5230          23          32
5240          21          30
5250          23          27
5260          22          28
5270          21          27
5280          22          27
5290          20          25
5300          19          26
5310          23          21
5320          20          28
5330          22          27
5340          20          30
5350          18          30
5360          25          22
5370          24          22
5380          22          24
5390          17          26
5400          20          29
5410          22          20
5420          22          23
5430          21          24
5440          19          25
5450          23          23
5460          22          24
5470          19          25
5480          23          24
5490          17          28
5500          23          21
5510          16          36
5520          18          29
5530          21          28
5540          17          33
5550          21          24
5560          22          27
5570          22          26
5580          19          24
5590          21          20
5600          22          24
5610          18          31
5620          23          20
5630          18          30
5640          21          25
5650          22          25
5660          20          27
5670          18          30
5680          22          28
5690          20          30
5700          18          26
5710          23          27
5720          21          29
5730          21          32
5740          18          34
5750          20          29
5760          21          36
5770          22          28
5780          20          29
5790          19          25
5800          19          24
5810          23          26
5820          19          26
5830          21          27
5840          18          29
5850          21          28
5860          22          19
5870          18          26
5880          20          21
5890          22          26
5900          21          28
5910          21          23
5920          20          24
5930          20          21
5940          19          24
5950          23          22
5960          21          20
5970          15          30
5980          15          24
5990          19          28
6000          17          26
6010          18          26
6020          20          32
6030          20          22
6040          17          30
6050          15          28
6060          19          32
6070          20          26
6080          19          28
6090          17          31
6100          18          29
6110          22          24
6120          21          29
6130          21          26
6140          19          31
6150          21          24
6160          23          24
6170          18          34
6180          18          28
6190          20          23
6200          18          31
6210          23          23
6220          22          22
6230          22          27
6240          19          25
6250          23          22
6260          21          27
6270          22          26
6280          18          31
6290          17          34
6300          19          31
6310          17          33
6320          21          30
6330          25          24
6340          21          23
6350          21          30
6360          22          30
6370          17          34
6380          21          28
6390          22          25
6400          22          29
6410          20          28
6420          17          27
6430          16          28
6440          19          27
6450          19          27
6460          18          30
6470          20          22
6480          19          24
6490          18          27
6500          18          24
6510          20          25
6520          20          32
6530          22          26
6540          23          25
6550          18          27
6560          18          26
6570          22          30
6580          20          27
6590          19          24
6600          23          21
6610          19          25
6620          17          28
6630          22          22
6640          21          32
6650          19          24
6660          20          21
6670          21          29
6680          19          31
6690          22          28
6700          21          27
6710          20          27
6720          21          30
6730          22          28
6740          18          25
6750          17          33
6760          20          26
6770          23          27
6780          17          25
6790          18          31
6800          19          31
6810          19          29
6820          21          31
6830          21          25
6840          21          29
6850          21          29
6860          21          31
6870          23          24
6880          19          28
6890          17          35
6900          23          26
6910          24          26
6920          21          26
6930          21          24
6940          22          25
6950          22          26
6960          22          31
6970          21          30
6980          21          30
6990          23          31
7000          22          25
7010          18          34
7020          21          32
7030          22          25
7040          20          32
7050          22          28
7060          21          30
7070          21          24
7080          20          29
7090          21          27
7100          18          24
7110          20          28
7120          20          28
7130          20          32
7140          21          25
7150          20          28
7160          17          30
7170          18          27
7180          19          29
7190          18          26
7200          23          22
7210          20          26
7220          20          28
7230          20          26
7240          19          24
7250          17          29
7260          23          23
7270          18          29
7280          21          28
7290          20          28
7300          15          30
7310          19          32
7320          21          28
7330          18          32
7340          19          32
7350          20          25
7360          18          27
7370          20          25
7380          24          20
7390          23          27
7400          22          23
7410          21          27
7420          19          30
7430          20          35
7440          19          28
7450          17          34
7460          20          31
7470          20          27
7480          19          29
7490          18          30
7500          20          29
7510          24          25
7520          24          22
7530          18          25
7540          23          22
7550          20          33
7560          21          31
7570          22          27
7580          19          29
7590          23          25
7600          20          27
7610          21          32
7620          21          31
7630          23          27
7640          26          28
7650          21          34
7660          20          30
7670          19          24
7680          18          26
7690          18          31
7700          16          33
7710          25          22
7720          18          28
7730          19          27
7740          19          26
7750          18          31
7760          17          34
7770          17          31
7780          16          37
7790          24          23
7800          22          28
7810          20          26
7820          21          34
7830          20          28
7840          22          27
7850          24          25
7860          23          24
7870          23          27
7880          24          31
7890          22          24
7900          19          27
7910          21          28
7920          18          31
7930          21          27
7940          17          36
7950          21          27
7960          20          28
7970          21          31
7980          22          29
7990          24          26
8000          19          33
8010          24          27
8020          25          24
8030          19          34
8040          21          25
8050          21          23
8060          22          27
8070          19          30
8080          22          26
8090          21          26
8100          22          23
8110          23          26
8120          23          22
8130          25          21
8140          17          29
8150          21          26
8160          22          28
8170          19          31
8180          20          32
8190          18          33
8200          21          24
8210          21          27
8220          20          22
8230          17          29
8240          21          24
8250          18          34
8260          19          25
8270          24          27
8280          18          34
8290          22          27
8300          23          22
8310          19          30
8320          23          24
8330          21          31
8340          18          31
8350          18          29
8360          23          28
8370          23          27
8380          23          27
8390          25          25
8400          18          31
8410          21          26
8420          28          22
8430          23          26
8440          25          29
8450          21          26
8460          25          24
8470          24          24
8480          22          29
8490          17          29
8500          25          22
8510          23          31
8520          24          23
8530          21          32
8540          18          26
8550          23          27
8560          21          30
8570          20          28
8580          16          38
8590          20          29
8600          18          35
8610          21          23
8620          20          30
8630          23          25
8640          21          31
8650          20          29
8660          21          26
8670          24          26
8680          19          27
8690          26          25
8700          23          23
8710          19          28
8720          19          31
8730          20          32
8740          21          30
8750          24          28
8760          21          27
8770          24          29
8780          23          23
8790          22          23
8800          20          32
8810          23          26
8820          22          29
8830          20          27
8840          22          30
8850          21          32
8860          21          23
8870          25          19
8880          23          28
8890          21          34
8900          26          25
8910          19          30
8920          20          27
8930          22          24
8940          22          30
8950          23          23
8960          26          21
8970          22          23
8980          19          28
8990          18          28
9000          18          28
9010          23          23
9020          19          29
9030          20          25
9040          19          29
9050          25          29
9060          19          30
9070          22          23
9080          24          23
9090          23          24
9100          23          26
9110          22          25
9120          25          26
9130          24          26
9140          19          31
9150          21          31
9160          22          26
9170          24          26
9180          25          27
9190          21          29
9200          20          27
9210          22          26
9220          23          29
9230          20          27
9240          22          28
9250          25          27
9260          20          28
9270          25          22
9280          23          29
9290          24          28
9300          23          25
9310          20          29
9320          25          21
9330          21          28
9340          23          23
9350          22          30
9360          23          24
9370          24          24
9380          25          29
9390          25          28
9400          18          33
9410          22          33
9420          24          26
9430          25          22
9440          19          29
9450          19          30
9460          24          22
9470          20          24
9480          18          27
9490          20          22
9500          23          21
9510          18          31
9520          24          24
9530          16          39
9540          22          27
9550          21          23
9560          23          24
9570          23          23
9580          23          22
9590          22          22
9600          22          24
9610          22          19
9620          20          27
9630          25          18
9640          21          21
9650          19          28
9660          21          25
9670          24          23
9680          18          30
9690          22          30
9700          20          27
9710          22          27
9720          20          29
9730          21          26
9740          21          34
9750          23          27
9760          22          27
9770          25          24
9780          22          28
9790          26          20
9800          23          24
9810          23          20
9820          27          21
9830          26          18
9840          21          25
9850          24          22
9860          21          29
9870          17          30
9880          23          20
9890          20          26
9900          20          28
9910          21          30
9920          19          30
9930          20          28
9940          23          22
9950          23          26
9960          16          31
9970          20          29
9980          19          25
9990          22          22
10000          19          27
