Time   C(t)   
ps   
0           1           1  1.30976e-09   0.0549935
10    0.452881     0.81732    0.954353   0.0283193
20    0.433614    0.810887    0.631154  0.00164504
30    0.419981    0.806335     1.16736  0.00143313
40    0.404951    0.801317     1.63311   0.0012413
50    0.395155    0.798046     1.73886  0.000654057
60     0.39187    0.796949     2.56168  0.000798036
70    0.379194    0.792717     1.73834  0.000862516
80     0.37462    0.791189     1.73726  0.000584641
90    0.367501    0.788812    0.448129  0.000940043
100    0.355819    0.784912    0.914266  0.000581749
110    0.355866    0.784928    0.196049  0.000615329
120    0.343513    0.780803    0.663199  0.00109867
130    0.333893    0.777591     1.88114  0.00035758
140    0.336361    0.778415   -0.161993  2.40281e-05
150    0.333412     0.77743   -0.126591  0.000651665
160    0.323328    0.774063   -0.377028  0.000359687
170    0.326218    0.775028    0.229108  0.000206496
180    0.319198    0.772684   -0.415262  0.000670739
190    0.312804    0.770549     1.16061  0.000415668
200    0.310884    0.769908      1.5542  0.000138633
210    0.310031    0.769623     1.23089  2.12342e-05
220     0.31046    0.769767     1.69538  0.000353591
230    0.302959    0.767262    0.908637  0.000257328
240    0.305313    0.768048    0.942221  0.000193964
250     0.29908    0.765967     1.80215  0.000607821
260    0.293157    0.763989    0.799493  0.000361508
270     0.29185    0.763553     1.26458  0.000152451
280    0.290108    0.762971     2.08712  0.000271395
290    0.286422    0.761741     1.83668  0.000460735
300    0.280893    0.759894    -1.27872  0.000342728
310    0.279567    0.759452   -0.420087  0.000257112
320    0.275751    0.758178     1.90755  0.000636525
330    0.266837    0.755201   -0.131975  -6.16312e-05
340    0.276983    0.758589    0.509528  -0.000440553
350    0.275648    0.758143    0.796871  0.000367238
360    0.269639    0.756137     2.47965  0.000139374
370     0.27286    0.757212     1.65547  0.000210869
380    0.265421    0.754729     1.19094  0.000216198
390    0.268536    0.755769      1.0104  -4.45023e-05
400    0.266311    0.755026  0.00791958  0.000255418
410    0.263428    0.754063     1.04538  0.000572787
420    0.254856    0.751201     1.40385  0.000404119
430    0.255346    0.751364     1.76164  -0.000103851
440    0.256933    0.751894     1.33143  8.23662e-05
450    0.253698    0.750814    0.436276  0.000159101
460    0.253751    0.750832      2.2976  0.000412349
470    0.245451    0.748061     0.97423  0.000280801
480    0.248135    0.748957  0.00617133  -5.39027e-05
490    0.246529    0.748421    0.327622   0.0001552
500    0.245031     0.74792     1.97552  -2.10196e-05
510     0.24695    0.748561     1.11441  0.000139304
520    0.242244     0.74699    0.292604  0.00044333
530    0.238083    0.745601     0.18458  0.000200747
540     0.23823    0.745649    0.649038  9.05953e-05
550    0.236271    0.744996    0.936206  0.00014614
560    0.235307    0.744673     1.79498  0.000601788
570    0.224235    0.740977  -0.0287415  0.000291254
580    0.229482    0.742729      1.3299  -0.000152335
590    0.227282    0.741994    0.256084  5.86152e-05
600    0.228309    0.742337    0.469651  -5.82226e-05
610    0.228447    0.742383    0.612902  0.000259755
620    0.223114    0.740602     1.04262  0.000198579
630    0.224475    0.741057    0.397343  -6.91473e-05
640    0.224497    0.741064    0.682832  0.000210583
650    0.220263    0.739651    0.719842  0.000233282
660    0.219832    0.739506     1.47157  3.88324e-06
670    0.220186    0.739625    0.182377  -0.00015902
680    0.223012    0.740568     1.14739  3.76925e-05
690    0.219432    0.739373     1.11234  0.000211931
700    0.218773    0.739153     0.21652  0.000274492
710    0.213942     0.73754    0.933409  0.000218474
720    0.214404    0.737694     1.00498  -0.000119649
730    0.216335    0.738339    0.967902  -0.000215948
740    0.218723    0.739136  -0.0709967  0.000162822
750    0.213079    0.737252    0.144563  0.000338399
760    0.211955    0.736876      2.0421  0.000146525
770    0.210148    0.736273    0.895944  0.000231988
780    0.207315    0.735327    0.217045  0.000425719
790    0.201634     0.73343   -0.104476  -9.13993e-05
800    0.209143    0.735938     2.00516  -0.000147836
810     0.20459    0.734417      1.5053  0.000301715
820    0.203109    0.733923   0.0719406  0.000388205
830    0.196826    0.731825    0.575018  -7.98672e-05
840    0.204706    0.734456    -0.89479  -0.000245269
850    0.201732    0.733463     1.03836  0.000211842
860    0.200469    0.733041    0.178811  0.000287041
870    0.195991    0.731546    0.394825  0.000344888
880    0.193571    0.730738    -0.57215  0.000213502
890    0.191721     0.73012    0.215297  0.00020829
900    0.189406    0.729347     1.18231  -9.6558e-05
910    0.193652    0.730765   -0.359877  -7.90544e-05
920    0.190987    0.729875    0.284283  -2.193e-05
930    0.194091    0.730912    0.462762  0.000319289
940    0.184601    0.727743    -0.18035  0.000319325
950    0.187704    0.728779    0.249161  -6.73622e-05
960    0.185948    0.728193   -0.432081  5.9811e-05
970    0.186508     0.72838    0.498618  7.16731e-05
980    0.184515    0.727714     1.07135  0.000548188
990    0.175544    0.724719     0.57271  6.03735e-05
1000    0.183307    0.727311    0.533146  -0.000119131
1010    0.177927    0.725515     1.42911   0.0004862
1020    0.173583    0.724064    0.283793  0.000125558
1030    0.175416    0.724676    0.498094  1.5156e-05
1040     0.17328    0.723963   -0.575997  2.07074e-05
1050    0.175001    0.724538   -0.290961  -9.02832e-05
1060    0.175086    0.724566   -0.147256  0.000120568
1070     0.17259    0.723733   -0.505472  0.000202836
1080    0.171029    0.723212   -0.684511  -8.22917e-06
1090    0.172755    0.723788    -1.00712  -8.01533e-06
1100    0.171189    0.723265    -1.18671  0.000256747
1110     0.16762    0.722073    -2.47584  0.000251338
1120    0.166163    0.721587    -1.50858  0.000110411
1130    0.165411    0.721336    -1.97493  7.51726e-05
1140    0.164659    0.721085    -2.22488  -2.52061e-05
1150    0.165916    0.721504     -1.5096  0.000111116
1160    0.162437    0.720343   -0.685804  0.000371951
1170    0.158477     0.71902       -1.33  0.000360919
1180    0.155219    0.717933   -0.327762  -0.0001493
1190    0.161463    0.720017    -1.40339  2.33673e-05
1200    0.154751    0.717776   -0.758706  0.000654136
1210     0.14838    0.715649    0.317272  0.000190528
1220    0.150941    0.716504    0.244336  -5.62295e-06
1230    0.148492    0.715687     1.03234  -5.96859e-05
1240    0.152134    0.716903    0.602272  1.83508e-05
1250    0.148125    0.715564     0.35215  0.000371388
1260    0.144707    0.714423    -1.40196  -0.000209513
1270    0.152316    0.716963   -0.329791  -0.000185315
1280    0.148413     0.71566    0.387587  6.6077e-05
1290    0.150994    0.716522    0.923933  5.4545e-05
1300    0.147322    0.715296     2.07005  -0.000108384
1310    0.153162    0.717246     1.85376  -0.000270931
1320    0.152741    0.717105    0.349457  -7.25836e-05
1330    0.154613     0.71773    0.814195  -0.000102895
1340    0.154798    0.717792    0.957867  0.000114641
1350    0.152321    0.716965    0.635297  0.000193589
1360    0.150927      0.7165     1.49488  0.000230497
1370    0.147711    0.715426    0.886713  0.000139785
1380    0.148131    0.715566     1.70995  -0.000157663
1390    0.150864    0.716479     1.81668  -0.000188323
1400    0.151897    0.716824    0.204737  -0.000170526
1410    0.154274    0.717617     1.63621  0.000109839
1420    0.149701     0.71609     1.67346   0.0001341
1430    0.151592    0.716722    0.920122  6.7541e-05
1440     0.14835    0.715639    0.670384  0.000171507
1450    0.148162    0.715576     0.16965  0.000264004
1460     0.14307    0.713876     1.17252  0.00030732
1470    0.142016    0.713524    0.670909  -4.81188e-05
1480    0.144032    0.714197    0.526993  1.9636e-05
1490    0.141623    0.713393    0.670489  0.000154906
1500    0.140934    0.713163    0.455874  -0.000153013
1510    0.144683    0.714415     1.63656  -9.75132e-05
1520    0.142884    0.713814       1.279  8.73916e-05
1530    0.142936    0.713831     1.95881  -0.000147506
1540    0.145834    0.714799    0.418444  0.000124959
1550    0.140436    0.712997   -0.261328  0.000279909
1560    0.140236     0.71293    0.633513  0.000162859
1570    0.137179    0.711909    0.634423  -0.000129226
1580    0.142821    0.713793     1.52815  -0.000265986
1590    0.142499    0.713686   0.0234613  0.000350136
1600    0.135818    0.711455    0.130787  0.000375513
1610    0.134989    0.711178    0.775926  2.68839e-05
1620     0.13528    0.711275    0.595979  -2.92316e-05
1630    0.135573    0.711373    0.345891  8.34018e-05
1640    0.133612    0.710718    0.775017  0.000121032
1650    0.133153    0.710565    0.559877  9.62995e-05
1660    0.131686    0.710075     1.34788  0.000140544
1670    0.130342    0.709626    0.775647  0.000184976
1680    0.127987     0.70884    0.882518  9.07741e-05
1690    0.128526     0.70902    0.631871  -0.000123326
1700    0.130453    0.709664    0.309266  9.14857e-06
1710    0.128343    0.708959    0.989003  0.000325082
1720    0.123952    0.707493     1.41942  -7.31364e-05
1730    0.129806    0.709447   0.0218182  -0.000186815
1740    0.127688     0.70874   -0.336434  0.000129574
1750    0.127215    0.708582    0.773024  7.2825e-05
1760    0.126231    0.708254    0.165595  0.000123906
1770    0.124736    0.707755    0.415542  0.000213306
1780    0.121965    0.706829    0.416486  3.27602e-06
1790    0.124671    0.707733   -0.515192  -0.000124058
1800    0.124447    0.707658    0.343758  -0.000188511
1810    0.128441    0.708992    0.342395  9.71109e-06
1820    0.124252    0.707593    0.665385  0.000316916
1830    0.122103    0.706875     1.34614  0.000125299
1840    0.121746    0.706756   -0.194371  -0.000240529
1850    0.126913    0.708482      1.4528  -0.000221419
1860    0.126175    0.708235     1.52392  0.000383072
1870    0.119252    0.705923     1.63177  0.000164375
1880    0.122887    0.707137    0.306153  0.000184762
1890    0.115557     0.70469     1.02311  0.000255632
1900    0.117775     0.70543   -0.194196  -8.61239e-05
1910    0.117279    0.705265    0.950909  0.000146792
1920    0.114839     0.70445   -0.229912  8.20983e-05
1930    0.115637    0.704717   -0.231102  -0.000183816
1940    0.118515    0.705677    0.162517  0.000316746
1950    0.109302    0.702601     1.38038  0.000460003
1960    0.109315    0.702606     1.63072  0.000194339
1970    0.105416    0.701304     1.12974  -7.30298e-05
1980    0.110776    0.703093    0.841905  -0.000203372
1990    0.109483    0.702662     1.66559  0.000266887
2000    0.105438    0.701311     1.48781  0.000208459
2010    0.105314     0.70127     1.77264  1.8958e-05
2020    0.105059    0.701184     1.98764  -0.000184726
2030    0.109008    0.702503     1.87958  9.79684e-05
2040    0.103099     0.70053     1.27103  0.00024252
2050    0.104158    0.700884      2.5235  0.00024351
2060   0.0982291    0.698904     2.09524  0.000177674
2070    0.100604    0.699697     1.88024  -7.91974e-05
2080   0.0998131    0.699433     2.05858  0.000357286
2090   0.0934587    0.697311     2.02423  7.94832e-05
2100   0.0982234    0.698902     2.66689  -3.90407e-05
2110   0.0942395    0.697572     1.12774  0.000279258
2120   0.0926382    0.697037     1.44983  0.000306686
2130   0.0881058    0.695524     1.16444  -0.000192331
2140   0.0964849    0.698322     2.20103  -0.000438813
2150    0.096882    0.698454      2.6664  -9.31215e-05
2160   0.0983473    0.698944      2.7017  -0.000240387
2170     0.10169     0.70006     2.55781  2.69108e-05
2180   0.0978091    0.698764     3.74017  0.000348343
2190   0.0947229    0.697733     2.80937  0.000282159
2200   0.0921659     0.69688     3.05974  -0.000187627
2210   0.0984755    0.698986     3.70278  0.000122032
2220   0.0897253    0.696065     2.98743  0.000438117
2230   0.0897131    0.696061     2.27138  0.000331884
2240   0.0830876    0.693848     1.95021  -7.30481e-05
2250   0.0911741    0.696548     2.30633  -0.00013318
2260   0.0857512    0.694738     2.52147  0.000360071
2270   0.0839726    0.694144     4.16801  0.00030699
2280   0.0796114    0.692688     3.95395  0.000226105
2290   0.0794505    0.692634     2.98712  0.000118158
2300   0.0772482    0.691899     3.05767  0.000227292
2310   0.0749047    0.691116     3.34435  0.000268752
2320   0.0718732    0.690104     1.55498  7.14503e-05
2330   0.0734757    0.690639     1.80503  -0.00018095
2340   0.0754922    0.691312     1.76792  0.000133475
2350   0.0708062    0.689748     3.73741  0.000338971
2360   0.0687128    0.689049     2.69865  0.000518404
2370   0.0604381    0.686286     1.80493  0.000354448
2380   0.0616238    0.686682     1.19572  -7.05665e-05
2390   0.0618495    0.686757     2.16252  -8.81851e-06
2400   0.0618002    0.686741     1.76774  -5.71333e-05
2410   0.0629921    0.687139     1.23101  -1.57449e-05
2420   0.0621151    0.686846     2.84229  0.000239967
2430   0.0581928    0.685536     2.12743  0.000157297
2440   0.0589691    0.685795     2.05474  3.32482e-05
2450   0.0575278    0.685314     2.48463  -2.24214e-05
2460   0.0594176    0.685945     2.16227  -0.000251722
2470   0.0625623    0.686995     2.73413  -9.21398e-05
2480   0.0612604     0.68656     2.33988  4.67081e-05
2490   0.0616281    0.686683     3.12774  0.00017962
2500   0.0576679    0.685361     4.13152  0.000123897
2510   0.0591501    0.685856      4.5957  2.65807e-05
2520   0.0571363    0.685183     4.02371  9.64867e-05
2530   0.0572204    0.685212     4.23738  0.000202158
2540   0.0530932    0.683833     4.05904  -5.05639e-05
2550   0.0582317    0.685549     3.52101  0.000231452
2560   0.0484641    0.682288     4.05977  0.000562264
2570   0.0469864    0.681794      3.8807  -0.000155432
2580   0.0515728    0.683326     3.95108  -0.000522884
2590   0.0574441    0.685286     3.84281  -0.000276562
2600    0.057104    0.685173     3.09059  0.000133225
2610   0.0547796    0.684397     3.66353  0.000317906
2620   0.0507459     0.68305     5.41869  0.00038259
2630   0.0471278    0.681842     3.91516  0.000220036
2640   0.0463452     0.68158     3.59311  1.42453e-05
2650   0.0468429    0.681747     3.66388  -8.55349e-05
2660   0.0480559    0.682152     4.02178  -0.000121398
2670   0.0492708    0.682557     2.66059  0.000336088
2680   0.0413341    0.679907     2.80448  9.99587e-05
2690   0.0472717     0.68189     2.30196  -7.09323e-05
2700   0.0427528    0.680381     3.48404  0.000474016
2710   0.0377913    0.678724     4.27191  0.000403352
2720   0.0346857    0.677687     3.48439  -0.000135554
2730   0.0405024     0.67963     2.23007  -0.000142552
2740   0.0375368    0.678639     3.94878  0.000275321
2750    0.034996    0.677791     3.98411  0.000167651
2760   0.0341838     0.67752     4.66444  -4.90198e-05
2770   0.0359764    0.678118     3.62544  -5.47152e-06
2780   0.0342932    0.677556     3.51741  0.000299269
2790    0.029991     0.67612     4.34156  8.90516e-05
2800   0.0325122    0.676962     4.66339  9.65763e-06
2810   0.0297979    0.676055     4.34117  0.000249946
2820   0.0275132    0.675292     4.05495  0.000360249
2830   0.0225929     0.67365      3.4111  -3.38283e-05
2840   0.0281898    0.675518     3.26642  -0.000377378
2850   0.0301404     0.67617     5.05666  9.9699e-06
2860   0.0279904    0.675452     4.51906  0.000435654
2870   0.0214274     0.67326      4.8778  0.000421846
2880   0.0195535    0.672635     5.02091  0.000239235
2890   0.0166427    0.671663     4.62757  -4.77078e-05
2900   0.0205077    0.672953     4.44762  -4.0005e-05
2910   0.0174427     0.67193     3.15871  0.000314309
2920   0.0142215    0.670854     4.41184  -0.000166161
2930    0.020766     0.67304     3.94507  0.000152977
2940   0.0111619    0.669833     4.73374  0.000167098
2950    0.017424    0.671924     4.80388  -0.000433708
2960   0.0198361    0.672729     3.87262  0.000168088
2970   0.0140622    0.670801     4.91191  0.000548376
2980  0.00886856    0.669067     5.16322  4.95375e-05
2990   0.0130715     0.67047     5.34173  7.27711e-05
3000  0.00741314    0.668581     5.55757  1.23532e-05
3010   0.0128244    0.670388      4.8043  1.31832e-05
3020  0.00714947    0.668493     5.48516   1.994e-05
3030   0.0124256    0.670255     7.20288  -0.000234995
3040   0.0118494    0.670062     5.44839  3.50958e-05
3050   0.0117237     0.67002     5.19736  0.00045778
3060  0.00269377    0.667005     5.59241  -0.000229104
3070   0.0163058     0.67155     6.19858  -0.000462761
3080    0.011949    0.670096     5.08913  0.000686421
3090  0.00257738    0.666967      4.9472  0.000331411
3100  0.00532078    0.667883     4.48159  -0.000548314
3110   0.0135437    0.670628     4.73028  0.000348512
3120  -0.00164947    0.665555     4.01654  0.000324948
3130  0.00704468    0.668458     4.05061  -0.000221857
3140  0.00278767    0.667037     3.69327  0.000357491
3150  -0.000105145    0.666071     2.72622  3.70862e-05
3160  0.00204595    0.666789      3.5496  6.89955e-06
3170  -0.000243136    0.666025     3.47806  -1.07109e-06
3180  0.00206737    0.666796     3.58437  5.30453e-05
3190  -0.00130404    0.665671     3.19089  0.000306919
3200   -0.004071    0.664747     3.04879  -3.91123e-05
3210  -0.000521795    0.665932     3.51297  -0.000262763
3220  0.00118426    0.666501     3.40498  0.000107581
3230  -0.00267342    0.665213     5.05274  5.32685e-05
3240  0.00011889    0.666146     3.97781  -0.000264156
3250  0.00260969    0.666977     5.40974  0.000294405
3260  -0.0057692     0.66418     4.44399  0.000131083
3270  -1.19604e-05    0.666102     4.40767  -0.000319397
3280  0.000618728    0.666313     4.54907  0.000319174
3290  -0.00639543    0.663971     4.22846    0.000468
3300  -0.00874128    0.663187     4.83771  -0.00011723
3310  -0.00405083    0.664753     3.97757  -0.000281686
3320  -0.00310757    0.665068     4.44231  -0.00014149
3330  -0.00122103    0.665698     4.12005  1.54057e-05
3340  -0.00341568    0.664966     3.76236  0.000440304
3350  -0.0100271    0.662758     3.65559  0.000110107
3360  -0.00561783     0.66423     4.04862  -0.000291495
3370  -0.00419721    0.664705      4.0476  -1.57538e-05
3380  -0.00530275    0.664335      4.7279  -8.73289e-05
3390  -0.00245064    0.665288      4.8353  -7.93494e-06
3400  -0.00514405    0.664388     3.94028  0.000150558
3410  -0.0054618    0.664282     4.19173  -0.000151228
3420  -0.00211949    0.665398     5.44388  -7.96796e-05
3430  -0.00386821    0.664814     5.19253  0.00031081
3440  -0.0083357    0.663323     5.44385  1.57628e-05
3450  -0.00418347    0.664709     5.26397  8.48831e-06
3460  -0.00850546    0.663266      4.7633  2.3894e-05
3470  -0.00466135     0.66455     5.26407  -0.000352877
3480  -0.00144792    0.665623     5.36986  -6.44613e-05
3490  -0.00337212     0.66498     5.08444  0.000265236
3500  -0.00675264    0.663851     4.61855  0.000201408
3510  -0.00740028    0.663635     5.08458  9.71918e-05
3520  -0.00869647    0.663202     5.47837  -0.00019391
3530  -0.00352207     0.66493     5.29818  8.96675e-05
3540  -0.0104898    0.662603     5.54949  -2.76696e-07
3550  -0.00351654    0.664932     4.72514  -0.000373192
3560  -0.00302599    0.665096     4.18799  9.74417e-05
3570  -0.00546537    0.664281     5.83565  0.000130145
3580  -0.00562889    0.664227     4.72587  -0.000285845
3590  0.000251526     0.66619     4.76019  0.000147292
3600  -0.00857473    0.663243     4.93979  0.000122032
3610  -0.00218911    0.665375     4.61687  -0.000368791
3620  -0.0011989    0.665706     4.86745  -1.69499e-05
3630  -0.00185012    0.665488     5.97722  0.000287532
3640  -0.00694954    0.663786     5.26194  0.000123148
3650  -0.00431307    0.664666     4.90285  4.15401e-05
3660  -0.00778034    0.663508     3.57801  0.000363793
3670  -0.0115889    0.662237     3.25582  1.69588e-05
3680  -0.00811952    0.663395      3.0757  8.39818e-05
3690  -0.0132686    0.661676     3.97225  0.000191608
3700  -0.0119517    0.662115     3.21989  -7.36637e-05
3710  -0.0117953    0.662168     4.00727  -1.56378e-05
3720  -0.0116389     0.66222     3.39771  0.000234879
3730  -0.0164929    0.660599      3.6847  0.000444321
3740  -0.0205253    0.659253     4.36573  4.36645e-05
3750  -0.0173662    0.660308      4.4371  -0.000383528
3760  -0.0128548    0.661814     6.08336  -0.000317415
3770  -0.0110179    0.662427      3.4336  0.000304223
3780  -0.0189392    0.659782     4.40107  -5.81062e-05
3790  -0.00985574    0.662815     4.04222  -0.000284908
3800  -0.0132411    0.661685     3.71997  0.000169891
3810  -0.0132536    0.661681      4.1493  -4.1076e-05
3820  -0.0124196    0.661959     3.39722  -0.000236316
3830  -0.00852724    0.663259     3.64759  -0.000151844
3840  -0.00938268    0.662973      3.4683  -0.000178255
3850  -0.00496214    0.664449     4.93496  5.18225e-05
3860  -0.0104191    0.662627     4.00531  0.00031596
3870  -0.0112813    0.662339     3.25292  -7.70288e-06
3880  -0.0102651    0.662679     3.07385  0.000206665
3890  -0.0154147    0.660959     2.50171  -0.000119381
3900  -0.00787745    0.663476     3.07297  7.04326e-05
3910  -0.0168233    0.660489     3.39718  0.000241556
3920  -0.0127086    0.661863     2.68093  -0.00043801
3930  -0.0080631    0.663414     4.79196  -0.00023205
3940  -0.00806757    0.663412     3.93311  4.4629e-07
3950  -0.00807203    0.663411     3.78955  0.00011316
3960  -0.0103308    0.662657     3.96837  -6.89955e-05
3970  -0.00669212    0.663872     4.21881  0.000244341
3980  -0.0152176    0.661025     4.61362  0.000157047
3990  -0.00983307    0.662823     4.46963  7.14947e-05
4000  -0.0166475    0.660547     5.04341  0.000105635
4010  -0.0119458    0.662117     5.57951  -0.000217001
4020  -0.0123074    0.661997     5.36434  -7.63144e-06
4030  -0.0117931    0.662168     3.86143  -0.000174551
4040  -0.00881643    0.663162     4.32635  0.000106698
4050  -0.0139271    0.661456     4.18369  0.000220955
4060  -0.0132355    0.661687     3.75351  -0.000395899
4070  -0.00600913      0.6641     5.93703  -0.000104779
4080    -0.01114    0.662386     5.14951  0.000451952
4090  -0.0150482    0.661081     4.14783  -2.55988e-05
4100   -0.010628    0.662557     5.00713  -0.00054062
4110  -0.00423577    0.664692      3.9676  -0.000595736
4120  0.00128673    0.666536     3.53593  0.000338792
4130  -0.0110116    0.662429     4.39708  0.000454567
4140  -0.00780462      0.6635     4.46855  -1.69588e-05
4150  -0.0106724    0.662543     2.89386  0.000287309
4160  -0.0135508    0.661581     4.29028  -0.000250535
4170  -0.00566174    0.664216     3.25093  -0.0004754
4180  -0.0040428    0.664756     4.32491  -0.000243287
4190  -0.000795992     0.66584     3.14182  0.00028871
4200   -0.009817    0.662828     3.21461  0.000198186
4210  -0.00475971    0.664517     3.10733  -7.17268e-05
4220  -0.00838247    0.663307     2.74921  0.000399201
4230  -0.0127437    0.661851     4.46844  -8.12773e-05
4240  -0.00675692     0.66385     4.03677  -0.000208129
4250  -0.00858115    0.663241     3.17802  0.000200944
4260  -0.0107758    0.662508     3.46491  -0.000136509
4270  -0.00585096    0.664152     3.39229  -0.000273653
4280  -0.00530275    0.664335       2.855  0.00024767
4290  -0.0108044    0.662498     3.49969  0.000385786
4300  -0.0130185    0.661759     4.89645  -2.66342e-05
4310  -0.0102717    0.662676     3.28538  -0.000551705
4320  -0.00198436    0.665443     4.42888  0.000185574
4330  -0.0139832    0.661437     3.53554  0.000119667
4340  -0.00437769    0.664644     4.89439  -0.000489636
4350  -0.00419043    0.664707     4.64413  0.000129788
4360  -0.00697346    0.663778      4.5367  0.000269529
4370  -0.00958101    0.662907     3.82075  3.2133e-07
4380  -0.00697988    0.663775     4.82313  9.40945e-05
4390  -0.0114629    0.662279     3.71332  0.000327537
4400  -0.0135306    0.661588     4.07182  0.000244635
4410  -0.0163556    0.660645     4.35818  -0.000261282
4420  -0.00830499    0.663333     2.63825  -0.000139035
4430  -0.0135749    0.661573     3.46239  0.000245394
4440  -0.0132129    0.661694     3.31914  -0.000196615
4450  -0.00964259    0.662886      3.5333  -3.63633e-05
4460  -0.0124856    0.661937     4.17809  0.000171212
4470  -0.0130668    0.661743     4.28538  0.000105653
4480  -0.0145987    0.661232     4.28598  0.000115427
4490  -0.0153754    0.660972     5.18152  3.97728e-05
4500  -0.0153941    0.660966     3.81984  0.000278401
4510  -0.0209434    0.659113     4.21517  0.000145167
4520  -0.0182975    0.659997     5.18089  -0.00029386
4530  -0.0150662    0.661075     3.42622  -0.000294931
4540  -0.0123988    0.661966     4.39208  -0.000161537
4550  -0.0118355    0.662154     3.35346  0.000203452
4560  -0.0164679    0.660607     3.60467  0.000319423
4570  -0.0182239    0.660021     4.07014  0.000108322
4580  -0.0186343    0.659884     3.42545  -0.000104056
4590  -0.0161428    0.660716     3.64021  -7.51006e-05
4600  -0.0171323    0.660386      3.1033  -0.000104877
4610  -0.0140453    0.661416     3.88995  -9.51299e-05
4620  -0.0152297    0.661021     4.28472  9.91376e-05
4630   -0.016028    0.660754     3.49629  -1.76729e-05
4640  -0.0148763    0.661139     3.99748  -0.000438376
4650  -0.00726051    0.663682     4.10407  -0.000204175
4660  -0.0107928    0.662502     3.63899  9.85752e-05
4670  -0.00923201    0.663023     4.28329  8.96585e-05
4680  -0.0125859    0.661904     3.74593  -0.000275339
4690  -0.00372522    0.664862     4.89131  -0.00016658
4700  -0.00925433    0.663016     4.56899  0.000791503
4710  -0.0195553    0.659577     4.85643  0.000347843
4720  -0.0162112    0.660693      3.7821  -4.69491e-05
4730  -0.0186163     0.65989     4.21157  0.000350458
4740  -0.0232203    0.658353     4.28336  0.000421408
4750  -0.0270445    0.657076     5.07143  -7.64931e-05
4760  -0.0216905    0.658864     4.31809  -0.000366274
4770   -0.019719    0.659522     3.24439  -7.7109e-05
4780  -0.0201483    0.659379     2.88603  0.000274117
4790  -0.0252013    0.657691     3.92486  9.34608e-05
4800  -0.0220175    0.658754     4.35364  -0.000288737
4810  -0.0194266     0.65962     4.24621  0.000195294
4820  -0.0259234     0.65745     4.78381  0.000316683
4830  -0.0257602    0.657505      3.8168  0.00013592
4840  -0.0286418    0.656543     4.03211  -0.000290879
4850  -0.0199427    0.659447     4.17337  -0.000270529
4860  -0.0232312    0.658349      4.5325  -0.000201247
4870  -0.0159177    0.660791      3.7078  -0.000160136
4880  -0.0200285    0.659419     4.28077  0.000104538
4890  -0.0180085    0.660093      3.4936  -5.87042e-05
4900  -0.0188544    0.659811     3.70843  8.48029e-05
4910  -0.0197045    0.659527     3.24271  -0.000110696
4920  -0.0166405     0.66055     2.88383  -0.000296672
4930  -0.0137711    0.661508     3.45638  6.43274e-05
4940  -0.0179271     0.66012     3.70776  0.000260916
4950  -0.0189894    0.659766     3.81491  -0.00030915
4960  -0.0117441    0.662185     2.77563  -0.00032003
4970  -0.0125888    0.661903     3.31309  0.000345451
4980  -0.0186531    0.659878     3.27755  0.000168731
4990  -0.0159634    0.660776     3.38516  -7.98865e-06
