Time   Number   
ps   
0          26          24
10          30          21
20          28          29
30          30          26
40          27          25
50          31          22
60          28          29
70          24          32
80          26          28
90          24          26
100          30          25
110          26          28
120          26          25
130          26          24
140          25          26
150          29          22
160          27          27
170          28          26
180          26          30
190          24          27
200          28          22
210          28          27
220          29          25
230          28          23
240          27          29
250          31          22
260          32          23
270          30          24
280          27          26
290          28          25
300          28          31
310          27          28
320          27          24
330          27          25
340          26          27
350          25          27
360          32          23
370          29          28
380          30          26
390          30          27
400          24          21
410          26          29
420          25          31
430          25          32
440          29          27
450          25          28
460          29          22
470          23          30
480          28          27
490          27          25
500          31          23
510          28          28
520          26          28
530          26          23
540          24          32
550          32          28
560          29          28
570          25          26
580          22          33
590          29          27
600          26          27
610          22          25
620          28          26
630          27          26
640          29          27
650          24          28
660          25          33
670          24          30
680          28          28
690          25          25
700          23          25
710          26          30
720          24          32
730          28          30
740          28          24
750          26          32
760          28          28
770          26          30
780          27          32
790          26          31
800          31          32
810          31          27
820          22          37
830          26          24
840          25          27
850          31          28
860          30          28
870          31          29
880          29          26
890          23          39
900          30          24
910          26          33
920          25          33
930          25          34
940          27          29
950          28          36
960          29          22
970          25          32
980          25          28
990          29          24
1000          27          30
1010          30          18
1020          27          26
1030          24          25
1040          33          24
1050          31          28
1060          30          22
1070          28          28
1080          26          27
1090          26          27
1100          27          26
1110          31          32
1120          31          22
1130          28          30
1140          30          29
1150          31          26
1160          27          26
1170          27          32
1180          25          32
1190          29          36
1200          30          30
1210          26          27
1220          29          29
1230          28          33
1240          32          24
1250          26          34
1260          27          32
1270          26          26
1280          23          32
1290          26          29
1300          25          29
1310          32          28
1320          32          30
1330          31          32
1340          29          30
1350          33          29
1360          33          32
1370          27          33
1380          29          32
1390          29          26
1400          29          29
1410          32          26
1420          26          27
1430          28          34
1440          25          37
1450          28          29
1460          27          28
1470          27          29
1480          28          22
1490          27          26
1500          30          29
1510          29          21
1520          25          31
1530          25          27
1540          32          26
1550          26          27
1560          31          26
1570          26          30
1580          27          27
1590          31          21
1600          24          27
1610          24          25
1620          25          28
1630          24          26
1640          27          23
1650          25          26
1660          24          28
1670          25          23
1680          25          26
1690          26          24
1700          26          23
1710          25          24
1720          27          24
1730          26          23
1740          27          28
1750          26          23
1760          27          28
1770          32          25
1780          30          22
1790          24          27
1800          32          21
1810          27          25
1820          25          23
1830          25          34
1840          27          27
1850          25          28
1860          28          28
1870          26          35
1880          24          27
1890          29          29
1900          25          27
1910          27          33
1920          30          27
1930          23          34
1940          26          29
1950          32          28
1960          26          32
1970          25          26
1980          28          29
1990          26          27
2000          27          30
2010          27          31
2020          29          29
2030          27          29
2040          22          28
2050          23          26
2060          30          28
2070          24          25
2080          23          27
2090          25          31
2100          29          26
2110          25          30
2120          27          27
2130          23          29
2140          22          32
2150          28          23
2160          29          20
2170          27          28
2180          26          21
2190          25          27
2200          26          38
2210          28          30
2220          27          26
2230          27          29
2240          28          35
2250          25          29
2260          25          30
2270          24          26
2280          27          27
2290          29          27
2300          28          29
2310          27          26
2320          26          32
2330          30          24
2340          26          38
2350          24          28
2360          29          27
2370          25          25
2380          25          33
2390          28          31
2400          25          32
2410          27          28
2420          24          26
2430          27          29
2440          28          23
2450          24          25
2460          25          27
2470          29          30
2480          24          28
2490          27          26
2500          28          26
2510          26          28
2520          28          25
2530          27          30
2540          27          34
2550          24          29
2560          25          37
2570          24          29
2580          26          30
2590          24          28
2600          27          23
2610          26          21
2620          28          25
2630          27          29
2640          26          31
2650          26          28
2660          31          27
2670          32          26
2680          25          31
2690          27          29
2700          29          32
2710          25          31
2720          20          30
2730          28          30
2740          30          36
2750          28          33
2760          25          26
2770          26          32
2780          30          27
2790          27          33
2800          26          32
2810          26          30
2820          27          28
2830          27          29
2840          25          30
2850          28          30
2860          27          25
2870          23          30
2880          28          32
2890          28          31
2900          27          28
2910          27          33
2920          29          25
2930          28          24
2940          26          33
2950          30          24
2960          29          32
2970          32          22
2980          28          25
2990          30          29
3000          28          28
3010          28          27
3020          28          29
3030          28          32
3040          26          31
3050          26          23
3060          25          32
3070          29          27
3080          29          26
3090          31          24
3100          29          26
3110          26          31
3120          27          26
3130          28          27
3140          27          32
3150          27          29
3160          27          24
3170          24          29
3180          28          27
3190          26          29
3200          29          23
3210          29          29
3220          25          32
3230          27          23
3240          22          37
3250          22          30
3260          26          28
3270          30          28
3280          28          28
3290          29          35
3300          29          29
3310          28          31
3320          27          31
3330          29          30
3340          33          27
3350          31          25
3360          29          28
3370          28          26
3380          26          28
3390          31          27
3400          25          34
3410          28          33
3420          30          27
3430          28          35
3440          33          29
3450          30          32
3460          32          24
3470          27          31
3480          25          27
3490          27          32
3500          25          31
3510          27          26
3520          27          23
3530          28          33
3540          30          32
3550          29          28
3560          30          26
3570          27          33
3580          28          31
3590          31          23
3600          29          27
3610          25          31
3620          25          33
3630          24          33
3640          26          29
3650          27          27
3660          24          31
3670          28          27
3680          25          36
3690          27          29
3700          29          32
3710          32          25
3720          26          29
3730          31          24
3740          22          32
3750          28          28
3760          20          37
3770          24          38
3780          28          28
3790          25          33
3800          27          31
3810          26          26
3820          28          27
3830          26          33
3840          31          26
3850          29          27
3860          27          29
3870          28          26
3880          25          27
3890          30          29
3900          29          30
3910          31          34
3920          29          34
3930          32          28
3940          27          31
3950          33          33
3960          23          38
3970          30          30
3980          27          37
3990          25          32
4000          26          34
4010          28          39
4020          27          32
4030          27          33
4040          26          32
4050          29          30
4060          31          31
4070          33          31
4080          30          37
4090          34          27
4100          28          36
4110          26          35
4120          29          28
4130          31          31
4140          31          29
4150          30          31
4160          27          34
4170          27          34
4180          32          32
4190          33          29
4200          26          35
4210          27          30
4220          28          27
4230          31          31
4240          30          29
4250          30          31
4260          28          32
4270          27          27
4280          29          26
4290          24          29
4300          29          31
4310          28          25
4320          27          30
4330          29          22
4340          25          34
4350          28          31
4360          29          28
4370          25          28
4380          31          30
4390          32          24
4400          25          30
4410          24          31
4420          26          28
4430          28          35
4440          27          28
4450          26          35
4460          28          32
4470          26          37
4480          33          27
4490          26          31
4500          30          32
4510          28          31
4520          30          24
4530          35          26
4540          27          32
4550          31          29
4560          32          35
4570          34          29
4580          32          26
4590          29          31
4600          30          31
4610          30          26
4620          34          29
4630          33          31
4640          27          33
4650          32          35
4660          33          28
4670          27          32
4680          32          30
4690          30          37
4700          31          30
4710          32          34
4720          31          36
4730          32          31
4740          31          33
4750          33          38
4760          35          35
4770          34          33
4780          29          35
4790          30          35
4800          33          28
4810          27          32
4820          31          34
4830          30          31
4840          28          40
4850          28          30
4860          27          34
4870          27          39
4880          26          34
4890          26          36
4900          27          36
4910          32          26
4920          26          32
4930          29          26
4940          30          32
4950          26          32
4960          32          27
4970          31          30
4980          30          25
4990          30          28
5000          28          30
5010          28          32
5020          26          31
5030          29          27
5040          24          35
5050          28          26
5060          27          30
5070          29          29
5080          30          33
5090          26          39
5100          28          30
5110          27          33
5120          31          29
5130          28          30
5140          30          25
5150          29          30
5160          26          30
5170          30          27
5180          32          30
5190          34          32
5200          31          34
5210          33          34
5220          26          38
5230          30          34
5240          28          35
5250          31          33
5260          28          34
5270          29          34
5280          26          40
5290          30          33
5300          30          35
5310          29          32
5320          31          35
5330          31          35
5340          29          34
5350          28          35
5360          29          40
5370          31          35
5380          31          31
5390          26          39
5400          32          27
5410          30          38
5420          28          40
5430          34          32
5440          28          39
5450          30          35
5460          30          40
5470          28          38
5480          31          38
5490          29          35
5500          31          37
5510          35          33
5520          27          37
5530          32          34
5540          32          33
5550          30          36
5560          31          34
5570          32          34
5580          28          37
5590          28          38
5600          28          36
5610          32          31
5620          31          30
5630          26          35
5640          29          33
5650          24          38
5660          27          26
5670          30          29
5680          27          31
5690          28          36
5700          29          35
5710          28          30
5720          31          25
5730          30          25
5740          27          30
5750          30          28
5760          29          27
5770          26          34
5780          30          28
5790          28          35
5800          25          34
5810          31          30
5820          31          33
5830          28          29
5840          25          36
5850          27          33
5860          29          29
5870          25          28
5880          31          25
5890          26          26
5900          26          34
5910          26          35
5920          31          31
5930          23          33
5940          31          31
5950          28          30
5960          30          25
5970          29          30
5980          29          30
5990          30          30
6000          29          31
6010          29          30
6020          28          32
6030          29          29
6040          31          30
6050          32          31
6060          26          29
6070          29          30
6080          28          32
6090          28          30
6100          29          33
6110          30          29
6120          31          32
6130          32          28
6140          28          30
6150          31          27
6160          30          32
6170          31          30
6180          26          25
6190          31          29
6200          28          29
6210          29          33
6220          29          33
6230          29          25
6240          24          34
6250          28          33
6260          28          32
6270          31          32
6280          29          28
6290          25          29
6300          27          33
6310          32          28
6320          29          32
6330          27          34
6340          33          27
6350          33          29
6360          31          32
6370          29          34
6380          31          36
6390          28          32
6400          26          36
6410          29          30
6420          28          32
6430          32          30
6440          28          33
6450          27          36
6460          31          31
6470          31          33
6480          30          31
6490          29          34
6500          29          29
6510          29          33
6520          34          32
6530          31          32
6540          31          31
6550          30          35
6560          32          36
6570          33          33
6580          32          29
6590          33          28
6600          31          36
6610          34          29
6620          32          32
6630          30          31
6640          34          35
6650          30          35
6660          29          32
6670          33          33
6680          34          28
6690          29          34
6700          28          37
6710          37          27
6720          32          32
6730          33          31
6740          36          31
6750          30          35
6760          33          27
6770          31          34
6780          31          28
6790          30          27
6800          32          29
6810          32          26
6820          33          27
6830          29          29
6840          30          35
6850          33          30
6860          33          24
6870          31          34
6880          29          32
6890          31          31
6900          30          30
6910          33          31
6920          34          31
6930          27          33
6940          30          35
6950          28          35
6960          32          29
6970          30          29
6980          30          29
6990          27          36
7000          31          33
7010          30          25
7020          32          29
7030          30          33
7040          30          30
7050          32          31
7060          32          31
7070          31          31
7080          30          30
7090          27          36
7100          25          37
7110          25          35
7120          28          33
7130          32          28
7140          32          31
7150          28          28
7160          38          31
7170          32          27
7180          28          30
7190          29          34
7200          34          25
7210          30          36
7220          34          24
7230          32          30
7240          31          27
7250          28          36
7260          28          37
7270          28          35
7280          32          27
7290          31          34
7300          30          26
7310          34          26
7320          31          33
7330          29          30
7340          31          33
7350          30          31
7360          24          36
7370          30          30
7380          30          34
7390          34          29
7400          32          28
7410          29          37
7420          29          30
7430          28          31
7440          28          33
7450          26          32
7460          28          33
7470          28          32
7480          30          31
7490          30          30
7500          31          29
7510          28          29
7520          30          30
7530          26          36
7540          33          25
7550          31          32
7560          28          33
7570          27          36
7580          28          31
7590          33          26
7600          32          30
7610          29          31
7620          28          38
7630          30          29
7640          31          32
7650          29          27
7660          31          31
7670          30          35
7680          33          30
7690          29          32
7700          31          34
7710          30          36
7720          25          33
7730          28          32
7740          31          27
7750          28          36
7760          30          32
7770          31          32
7780          31          30
7790          31          29
7800          27          36
7810          31          29
7820          30          27
7830          32          29
7840          29          32
7850          28          31
7860          27          34
7870          32          30
7880          29          37
7890          26          32
7900          27          37
7910          31          31
7920          28          35
7930          33          27
7940          29          34
7950          31          34
7960          27          35
7970          31          30
7980          31          26
7990          32          32
8000          29          30
8010          29          33
8020          32          27
8030          28          31
8040          32          27
8050          31          29
8060          28          32
8070          30          30
8080          28          28
8090          33          31
8100          26          33
8110          29          29
8120          29          28
8130          33          27
8140          29          29
8150          33          27
8160          31          32
8170          28          33
8180          30          28
8190          33          22
8200          27          36
8210          31          30
8220          30          29
8230          31          31
8240          33          28
8250          30          33
8260          30          33
8270          35          33
8280          26          31
8290          32          28
8300          30          30
8310          32          37
8320          30          32
8330          30          32
8340          30          34
8350          28          29
8360          29          31
8370          27          33
8380          26          28
8390          33          30
8400          30          31
8410          32          33
8420          26          30
8430          27          33
8440          30          27
8450          30          30
8460          28          33
8470          31          32
8480          29          27
8490          27          32
8500          30          31
8510          33          26
8520          32          26
8530          25          31
8540          27          30
8550          29          24
8560          29          30
8570          34          25
8580          28          29
8590          26          31
8600          30          25
8610          29          28
8620          28          25
8630          29          32
8640          33          23
8650          30          24
8660          31          36
8670          29          29
8680          28          32
8690          27          25
8700          26          29
8710          33          22
8720          30          25
8730          29          31
8740          31          28
8750          31          25
8760          27          37
8770          30          32
8780          29          26
8790          33          26
8800          29          28
8810          31          30
8820          30          30
8830          31          27
8840          30          29
8850          31          27
8860          28          30
8870          30          33
8880          29          34
8890          27          32
8900          34          24
8910          31          33
8920          30          30
8930          29          26
8940          31          34
8950          26          33
8960          31          30
8970          31          31
8980          27          34
8990          27          29
9000          30          31
9010          33          30
9020          27          37
9030          27          34
9040          33          25
9050          30          34
9060          27          32
9070          28          31
9080          33          29
9090          33          32
9100          30          33
9110          29          32
9120          26          37
9130          29          26
9140          31          37
9150          30          28
9160          29          27
9170          25          33
9180          27          36
9190          27          31
9200          31          29
9210          29          34
9220          28          27
9230          26          31
9240          26          35
9250          31          32
9260          31          24
9270          30          31
9280          26          28
9290          32          26
9300          33          24
9310          30          36
9320          26          28
9330          32          29
9340          29          27
9350          33          25
9360          32          28
9370          35          26
9380          31          31
9390          31          30
9400          28          33
9410          30          25
9420          25          35
9430          23          32
9440          29          33
9450          28          26
9460          26          29
9470          32          30
9480          26          29
9490          27          32
9500          29          33
9510          32          30
9520          29          27
9530          29          31
9540          26          29
9550          28          27
9560          30          30
9570          25          30
9580          28          29
9590          30          31
9600          33          28
9610          31          30
9620          30          32
9630          28          31
9640          31          33
9650          31          30
9660          27          31
9670          31          29
9680          32          32
9690          29          31
9700          24          35
9710          31          29
9720          29          30
9730          31          28
9740          30          32
9750          31          29
9760          27          30
9770          28          34
9780          25          28
9790          30          27
9800          30          25
9810          29          31
9820          32          31
9830          30          26
9840          27          26
9850          27          31
9860          28          25
9870          28          26
9880          24          33
9890          26          31
9900          29          25
9910          32          24
9920          26          29
9930          29          31
9940          28          31
9950          29          25
9960          28          29
9970          27          30
9980          30          29
9990          27          25
10000          27          29
