Time   C(t)   
ps   
0           1           1  1.00712e-09   0.0406216
10    0.594884    0.876729     0.62864    0.021448
20     0.57104    0.869474   -0.100648  0.00227445
30    0.549395    0.862887   -0.164472  0.00187534
40    0.533533    0.858061   -0.639887   0.0015877
50    0.517641    0.853225    0.597332   0.0011401
60    0.510731    0.851122     0.88208  0.000855795
70    0.500525    0.848017    0.183697  0.00100619
80    0.490607    0.844999   -0.355605  0.000961986
90    0.481286    0.842163    0.501301  0.000598857
100     0.47863    0.841355   -0.578665  0.000744535
110    0.466395    0.837632  -0.0386819  0.00102383
120    0.458153    0.835124   -0.324173   0.0006496
130    0.453403    0.833678    -1.27649  0.000614889
140    0.445855    0.831382   -0.769116  0.000538485
150    0.442633    0.830401   -0.071787  0.000622578
160    0.433404    0.827593   -0.166486  0.000571735
170    0.431199    0.826922     1.64153  0.000448829
180    0.424427    0.824861   -0.357216  0.000792086
190    0.415357    0.822101    -2.07053  0.000637729
200    0.411673     0.82098   -0.769891  0.000327234
210    0.408812     0.82011    -1.78622  0.000832947
220    0.395014    0.815911    -1.37252  0.000693369
230    0.394945     0.81589   -0.865457  0.000278184
240     0.38945    0.814218    -2.35646  0.00028369
250    0.389271    0.814164   -0.579997  0.00024794
260    0.384491     0.81271    -1.21474  0.000536016
270    0.378551    0.810902   -0.516204  0.000238508
280    0.379721    0.811258    -0.96186  0.000480533
290     0.36894    0.807977   -0.326992  0.000832565
300     0.36307    0.806191    -1.78572  0.000135836
310    0.366223    0.807151    -1.69096  3.66196e-05
320    0.362337    0.805968    -1.24729  0.000399573
330    0.358232    0.804719   -0.993974  0.000374061
340    0.354856    0.803692    -1.24751  0.000475116
350     0.34873    0.801828     -1.7869  0.000259408
360    0.349668    0.802113    -1.24828  0.000455852
370    0.339613    0.799054    -2.10373  0.000673272
380    0.336203    0.798016   -0.897943  0.000489631
390     0.32982    0.796074    -1.31065  0.00046927
400    0.326817     0.79516   -0.613227  0.000374863
410    0.322323    0.793792    -1.05702  0.000147049
420    0.323876    0.794265    -1.69223  0.000270055
430    0.316922    0.792149    -1.53328  0.000621638
440    0.311444    0.790482     -1.9771  0.000340417
450    0.310113    0.790077    -1.85076  0.000346704
460    0.304509    0.788372    -1.75485  0.000432765
470    0.301458    0.787444    -1.50181  0.000182417
480    0.300861    0.787262   -0.740256  0.000354187
490    0.294374    0.785288    -1.97751  0.000510082
500    0.290659    0.784158    -2.26306  0.000350377
510    0.287367    0.783156   0.0207123  -8.38473e-05
520    0.292336    0.784668    -1.78953  0.000195913
530    0.283448    0.781964    -2.45484  0.000432393
540    0.283689    0.782037   -0.742548  0.000299154
550    0.277465    0.780143    -2.61383  0.000353326
560    0.276622    0.779886    -1.97946  0.000133024
570    0.274805    0.779333    -1.72599  0.000252141
580    0.271579    0.778352    -1.69391  0.000674605
590    0.261313    0.775228    -2.10593  0.00039404
600    0.263698    0.775954    -1.15501  0.000363041
610    0.254052    0.773019    -1.62952  0.000205785
620    0.259583    0.774702   -0.139547  -0.000189616
630    0.257844    0.774173    -2.29812  0.000326313
640    0.253056    0.772716    -1.59942  0.000370358
650    0.250437    0.771919    -1.18721  0.000245943
660    0.248138    0.771219    -1.50438  0.000366557
670    0.243106    0.769688   -0.869082  0.00026885
680    0.242761    0.769583   -0.679778  0.00012752
690    0.240556    0.768912  -0.0442279  0.000237127
700    0.238018     0.76814  -0.0760318  0.000177363
710    0.237008    0.767833  -0.0766207  1.87658e-05
720    0.237643    0.768026   -0.901567  0.000145189
730    0.234104    0.766949   -0.964896  0.000447673
740    0.228689    0.765301   -0.552252  0.000277871
750    0.228547    0.765258     0.43128  -0.000156531
760     0.23182    0.766254    0.398392  -4.07636e-05
770    0.229362    0.765506   -0.997784  0.000328781
780    0.225244    0.764253   -0.363072  0.000268498
790    0.223992    0.763872   -0.426184  0.000153064
800    0.222183    0.763321   -0.045684  -3.49358e-05
810    0.224691    0.764085   -0.268156  2.06657e-05
820     0.22177    0.763196   -0.934332  0.000331347
830    0.218064    0.762068    0.334692  0.000159743
840    0.218575    0.762223   -0.553926  0.000165825
850    0.214748    0.761059    0.112375  0.00021606
860    0.214254    0.760909    0.778644  0.000194474
870    0.210858    0.759875   -0.553894   9.422e-05
880    0.212369    0.760335   -0.808046  0.000128245
890    0.208293    0.759095   -0.554514  0.000469514
900    0.202979    0.757478    0.144055  0.00021842
910    0.203925    0.757766    0.143466  3.98234e-05
920    0.202182    0.757236   -0.268497  0.000112741
930     0.20167     0.75708   -0.299867  0.000292885
940    0.196325    0.755453    0.238598  0.000208822
950    0.197494    0.755809    0.143404  4.63463e-05
960    0.195398    0.755171    0.143311  7.45043e-05
970    0.196003    0.755355   -0.237002  -4.20213e-06
980    0.195482    0.755197    -0.45963  0.000210448
990    0.191795    0.754075    0.492161  0.000289908
1000    0.189684    0.753432   -0.554762  3.57978e-05
1010    0.191079    0.753857   0.0790834  0.000132457
1020    0.187035    0.752626  -0.0155531  0.000438946
1030      0.1823    0.751185   -0.332228  0.000246716
1040      0.1821    0.751125    0.523779  3.12924e-05
1050    0.181674    0.750995   -0.682039  3.13804e-05
1060    0.181473    0.750934    0.174062  0.00012273
1070    0.179219    0.750248    -1.22212  2.99737e-06
1080    0.181413    0.750916   -0.809998  -7.10271e-05
1090     0.18064     0.75068     -1.0958  -2.69338e-06
1100    0.181467    0.750932    -1.82592  5.46612e-05
1110    0.179547    0.750348    -1.41272  9.47684e-05
1120    0.179571    0.750355    0.553848  3.76686e-05
1130    0.178793    0.750118   -0.715082  -6.57484e-05
1140    0.180886    0.750755    0.141483  -0.000186491
1150    0.182523    0.751253  -0.0806169  -6.02543e-05
1160    0.182091    0.751122   -0.525127  8.3603e-05
1170    0.180851    0.750745   -0.905998  0.000141487
1180    0.179262    0.750261   -0.334242  -0.000204933
1190     0.18495    0.751992    -0.58892  -8.27611e-06
1200    0.179427    0.750311   -0.811051  0.000106913
1210    0.182811    0.751341   -0.144627  -0.000135875
1220    0.182145    0.751138    -1.44505  0.000136414
1230    0.180083    0.750511    -1.22348  0.000380719
1240     0.17453    0.748821   -0.905378  0.000171956
1250    0.176644    0.749465    -1.00175  1.5524e-05
1260     0.17422    0.748727    -1.03287  8.52682e-05
1270    0.174939    0.748946    -1.44576  -0.000147912
1280    0.177178    0.749627    -1.35085  -7.80106e-05
1290    0.176499     0.74942    -1.66855  0.000196687
1300    0.173244     0.74843   -0.842793  6.22422e-05
1310    0.175254    0.749042   -0.938886  0.000279732
1320     0.16765    0.746728     0.10875  0.000397232
1330    0.167309    0.746624    0.235283  -0.000148186
1340    0.170613    0.747629   -0.367781  -8.94599e-05
1350    0.169098    0.747169     0.01309  -0.000101713
1360    0.172647    0.748248   -0.431574  -0.000166541
1370    0.172429    0.748182   0.0443678  0.000175405
1380    0.169139    0.747181   -0.399678  0.000282092
1390    0.166787    0.746465   -0.336318  4.00871e-05
1400    0.168338    0.746937    0.837976  -0.000161164
1410    0.170011    0.747446   -0.463843  0.000253856
1420    0.163261    0.745392   -0.685014  0.000158931
1430    0.166832    0.746479   -0.590872  8.25748e-05
1440    0.161609     0.74489    -1.16148  0.000213239
1450    0.162567    0.745181   -0.114435  -0.000346264
1460    0.168534    0.746997    -1.70097  -9.61006e-05
1470    0.164489    0.745766    -1.28839  0.00035124
1480     0.16151    0.744859    -1.47856  0.000208548
1490    0.160318    0.744497   -0.717282  7.13699e-05
1500    0.160082    0.744425    -1.22475  3.56212e-05
1510    0.159606     0.74428   -0.432194  1.17041e-05
1520    0.159848    0.744354   -0.210187  -6.63854e-05
1530    0.160934    0.744684   -0.369175  8.99203e-05
1540     0.15805    0.743807   0.0438096  -9.68352e-05
1550     0.16287    0.745273    -1.00398  4.21934e-05
1560    0.157206     0.74355   0.0439029  0.000162437
1570    0.159622    0.744285   -0.781819  -0.00010282
1580    0.159262    0.744175    0.043469  0.000308449
1590    0.153453    0.742408   -0.432194  0.000114925
1600    0.156964    0.743476    0.170375  -1.16944e-05
1610    0.153687    0.742479    -1.00373  0.000194483
1620    0.153074    0.742293   -0.622831  0.000103887
1630    0.151609    0.741847   -0.527481  -4.82366e-05
1640    0.154039    0.742586   -0.210559  -6.02931e-05
1650    0.152815    0.742214   -0.877447  0.000323943
1660     0.14756    0.740615    0.804933  0.000226627
1670    0.148282    0.740834   -0.718862  9.90979e-05
1680    0.145578    0.740012   -0.623482  0.000301299
1690    0.142256    0.739001    -1.47964  6.8853e-05
1700    0.144201    0.739593  -0.0528409  9.39652e-05
1710    0.140377    0.738429    -1.10004  5.07824e-05
1720    0.143185    0.739284    -1.22717  5.74626e-05
1730    0.139228    0.738079   -0.782749   0.0002051
1740    0.139083    0.738035   -0.370414  0.000224306
1750    0.134741    0.736714  -0.0846135  0.000162858
1760    0.135826    0.737044   -0.529527  -2.81386e-05
1770    0.135304    0.736885   -0.657113  0.000318458
1780    0.129457    0.735106   -0.402559  5.22815e-05
1790    0.134259    0.736567    -1.79923  0.000164846
1800     0.12616    0.734103    -1.67118  0.000282504
1810    0.128608    0.734848   -0.434735  2.8687e-05
1820    0.125586    0.733928   -0.973788  4.71979e-05
1830    0.127665    0.734561   -0.148996  -0.000133367
1840    0.128254     0.73474   -0.561609  -2.6539e-06
1850    0.127718    0.734577    -1.76727  -0.000102712
1860    0.130308    0.735365    -1.22791  -2.76588e-05
1870    0.128271    0.734745    -1.00627  7.85396e-05
1880    0.128737    0.734887   -0.816164  -0.000115699
1890    0.130585    0.735449    -1.57781  0.000185806
1900    0.125021    0.733756   -0.910893  0.00014801
1910    0.127625    0.734549    -2.27589  0.000205629
1920    0.120908    0.732505    -1.00587  0.000319114
1930    0.121242    0.732607   -0.816288  -0.000241818
1940    0.125745    0.733977    -1.64161  -0.000242142
1950    0.126085     0.73408   -0.975275  -7.83831e-05
1960    0.127312    0.734454    -1.00723  0.000206775
1970     0.12195    0.732822    -1.76811  0.000378242
1980    0.119747    0.732152    -1.35531  0.000156942
1990    0.118811    0.731867    -1.29248  -0.000173475
2000    0.123217    0.733207    -2.65725  -6.52488e-05
2010    0.120116    0.732264    -2.08633  -0.000110577
2020    0.125429     0.73388    -2.11773  0.000138803
2030     0.11734    0.731419    -1.54669  0.000458114
2040    0.116266    0.731092    -2.30809  5.62482e-05
2050    0.116215    0.731077    -1.57871  -0.000167941
2060    0.119625    0.732114   -0.880732  -0.000206648
2070    0.120348    0.732334    -2.43562  0.000120478
2080    0.117216    0.731381    -2.02359  0.000159146
2090    0.117165    0.731366    -1.19809  -5.93722e-05
2100    0.118403    0.731743    -2.49932  -0.000272337
2110    0.122612    0.733023    -2.08739  -0.000143642
2120    0.121276    0.732617    -1.83333  0.000211388
2130    0.118384    0.731737    -2.08708  0.000108226
2140    0.119111    0.731958    -1.86482  0.000199488
2150    0.114394    0.730523    -2.15028  0.000167207
2160    0.115767    0.730941    -2.18221  -0.000189567
2170    0.118185    0.731676    -1.61151  -4.02935e-05
2180    0.116573    0.731186    -1.70679  0.000174523
2190    0.114695    0.730614    -2.02387  -4.69826e-05
2200    0.117513    0.731472    -2.72207  -7.94996e-05
2210    0.116285    0.731098    -1.86572  3.78449e-05
2220    0.116756    0.731241    -2.50056  0.000372209
2230    0.108841    0.728833    -2.30918  0.000418564
2240    0.108384    0.728694    -1.96088  6.53468e-05
2250    0.107534    0.728435    -2.40487  9.84319e-05
2260    0.106416    0.728095    -2.72173  -0.000125268
2270    0.110039    0.729198    -2.21482  -0.000118735
2280    0.108791    0.728818    -2.43741  1.9373e-05
2290    0.109652     0.72908    -2.53224  0.000323649
2300    0.102318    0.726848    -3.26156  0.000145219
2310    0.106747    0.728196    -2.27889  -0.000284502
2320    0.108008    0.728579    -2.91348  -0.000205835
2330    0.110864    0.729449    -2.97761  1.9706e-05
2340    0.107613     0.72846       -2.85  0.000298958
2350    0.104885    0.727629     -2.5009  6.57178e-06
2360    0.107482     0.72842    -2.78664  -7.99209e-05
2370    0.106483    0.728116    -2.34203  -6.0283e-05
2380    0.108688    0.728786    -2.69209  2.00685e-05
2390    0.106082    0.727993    -2.97706  0.000220771
2400    0.104272    0.727443      -2.596  -0.00015421
2410    0.109166    0.728932    -2.40651  -0.000241544
2420    0.109103    0.728913     -3.1366  0.000120655
2430    0.106753    0.728198    -2.15236  6.39558e-06
2440    0.108975    0.728874    -4.40612  0.00012135
2450    0.104326    0.727459    -3.67578  0.000161732
2460    0.105741     0.72789    -3.77107  -0.000202515
2470    0.108376    0.728692    -2.40679  -0.000189508
2480    0.109531    0.729043     -2.9787  0.000169175
2490    0.104993    0.727662    -2.31144  0.000243963
2500    0.104652    0.727558    -2.78819  -0.000196932
2510    0.108931    0.728861    -2.40756  7.05197e-06
2520     0.10451    0.727515      -3.391  0.00029268
2530    0.103078    0.727079    -2.47123  0.000143553
2540    0.101639    0.726642    -3.04212  0.000137177
2550    0.100334    0.726245    -3.51791  0.00030173
2560   0.0956048    0.724805    -2.97839  0.000295432
2570   0.0944256    0.724447    -1.51864  -5.3408e-05
2580    0.096673     0.72513     -2.8835  -6.70608e-05
2590   0.0957668    0.724855    -3.23297  2.19196e-05
2600   0.0962346    0.724997    -2.72582  0.000235658
2610   0.0910536    0.723421    -3.29609  0.000194591
2620   0.0923428    0.723813    -3.23279  0.000243826
2630   0.0861771    0.721937    -3.64506  0.000133299
2640   0.0896768    0.723002    -3.13812  -0.000350475
2650   0.0931866     0.72407    -3.51893  7.8569e-05
2660   0.0881054    0.722524    -3.58241  0.000217127
2670   0.0888441    0.722748    -3.74109  -0.000164405
2680   0.0913935    0.723524    -3.17048  0.000113828
2690   0.0865675    0.722056    -3.36013  0.000169439
2700   0.0880047    0.722493    -3.10709  0.00023317
2710   0.0819041    0.720637    -2.56708  -5.34467e-05
2720   0.0890737    0.722818    -3.52023  -0.000367752
2730   0.0892592    0.722875    -3.04423  5.15174e-05
2740   0.0880433    0.722505    -3.36152  0.000121703
2750   0.0868251    0.722134    -3.01245  0.000248625
2760   0.0830708    0.720992    -3.20263  3.79622e-05
2770   0.0860659    0.721903    -3.90104  -0.000102555
2780   0.0851219    0.721616    -4.15442  -3.25069e-05
2790    0.086716    0.722101     -3.2034  8.07531e-05
2800   0.0835068    0.721124     -3.7428  0.000271808
2810   0.0812798    0.720447    -2.18772  8.82752e-05
2820   0.0817413    0.720587    -2.50545  -0.000216598
2830   0.0856118    0.721765    -3.17135  -6.05382e-05
2840   0.0829521    0.720955    -2.85464  0.000173798
2850   0.0821358    0.720707    -2.02991  8.17325e-05
2860   0.0813174    0.720458    -2.50579  1.76884e-05
2870   0.0817821    0.720599     -1.7766  0.000103632
2880   0.0792448    0.719827    -2.28385  0.000146658
2890   0.0788489    0.719707    -1.36402  5.40152e-05
2900   0.0781645    0.719499    -1.80834  0.000154719
2910   0.0757545    0.718765    -2.44281  0.00036355
2920   0.0708935    0.717286    -2.31578  0.000141124
2930    0.072932    0.717906    -2.12505  -1.66401e-05
2940   0.0712263    0.717387    -1.93543  0.00038025
2950   0.0653271    0.715592    -1.68082  0.000308723
2960   0.0650518    0.715509    -1.23736  -0.00016798
2970   0.0686867    0.716615    -2.34832  -0.000320417
2980   0.0714602    0.717459    -2.15828  -0.000110782
2990   0.0709023    0.717289    -2.28493  6.31433e-05
3000   0.0701973    0.717074    -1.93587  -0.000118735
3010    0.073277    0.718011    -1.36557  0.000442825
3020   0.0613408    0.714379    -1.93552  0.00034074
3030   0.0664622    0.715938     -1.4602  -0.000373874
3040   0.0688183    0.716655    -1.27031  0.000291436
3050   0.0606335    0.714164    -1.77747  0.000306205
3060   0.0626942    0.714791   -0.857913  0.000168254
3070   0.0572684     0.71314    -1.93577  0.000329976
3080   0.0560947    0.712783   -0.350198  8.07432e-05
3090   0.0556535    0.712649    -1.20661  0.00020653
3100   0.0519641    0.711526   -0.540339  0.000310339
3110   0.0494468     0.71076   -0.889221   0.0001337
3120     0.04929    0.710713   -0.794088  0.000260222
3130   0.0442423    0.709177   -0.762502  0.000423932
3140   0.0408114    0.708133    -1.26975  3.14295e-05
3150   0.0436137    0.708985   -0.540804  -0.000295599
3160   0.0467234    0.709932    -2.09585  7.62772e-05
3170   0.0420882    0.708521   -0.921427  0.000434255
3180   0.0380383    0.707289    -1.04846  -3.54353e-05
3190   0.0427969    0.708737    -1.14446  0.000197245
3200   0.0340934    0.706088    -1.23875  0.000421767
3210   0.0343615     0.70617    -2.03224  1.81487e-05
3220   0.0337304    0.705978     -1.0806  0.00021368
3230   0.0300879     0.70487    -1.99997  6.34957e-05
3240   0.0324605    0.705592   -0.731379  0.000101801
3250   0.0280519     0.70425    -2.12715  0.000214943
3260   0.0281616    0.704283     -1.2713  0.000276421
3270   0.0225235    0.702568   -0.635627  0.000276794
3280   0.0226258    0.702599   -0.921737  -7.09687e-05
3290   0.0239429       0.703    0.125434  1.24778e-05
3300   0.0223762    0.702523   -0.128842  8.0851e-05
3310   0.0223259    0.702508   -0.858502  7.35446e-05
3320   0.0209053    0.702075    -1.93714  5.0734e-05
3330   0.0213112    0.702199   -0.382745  0.00012752
3340   0.0183549    0.701299   -0.414054  0.000326724
3350   0.0147767    0.700211    -0.47729  5.16056e-05
3360   0.0173228    0.700985    -1.30295  0.000113632
3370    0.012504    0.699519    -1.23906  0.000159567
3380   0.0141315    0.700014    -1.17639  -0.000216883
3390   0.0168417    0.700839   -0.764392  9.11153e-05
3400   0.0123091     0.69946    -1.14474  0.000508064
3410  0.00668042    0.697747   -0.826543  1.42897e-05
3420   0.0120233    0.699373   -0.890925  -0.000186335
3430   0.0104071    0.698881   -0.764206  0.000231701
3440  0.00738933    0.697963    -1.17623  6.13117e-05
3450  0.00918088    0.698508    -1.14467  5.40835e-05
3460  0.00630765    0.697634    -1.81082  0.000108441
3470  0.00701205    0.697848    -1.71627  5.43871e-05
3480  0.00521991    0.697303   -0.288605  0.000257695
3490  0.00185815     0.69628    -1.20847  0.000180027
3500  0.00161937    0.696207    -1.33565  1.61016e-05
3510  0.00153612    0.696182    -1.17707  0.000126188
3520  -0.000904396    0.695439   -0.859896  0.000126394
3530  -0.00099176    0.695413    -1.11377  0.000245149
3540  -0.00580737    0.693947    -1.39867  0.000158705
3550  -0.00416586    0.694447    -1.27251  -5.37016e-05
3560  -0.00473334    0.694274    -1.49486  9.63748e-05
3570  -0.00609336     0.69386    -1.90728  0.000223474
3580  -0.00920282    0.692914     -1.2093  0.000327332
3590    -0.01264    0.691868    -1.27211  -5.35155e-05
3600  -0.00813251     0.69324    -1.20915  -0.000268204
3610  -0.00727591      0.6935   -0.956051  -8.57775e-05
3620  -0.00641696    0.693762    -1.49554  5.78151e-05
3630  -0.00843221    0.693148    -1.24132  0.000193856
3640  -0.0102941    0.692582    -1.01938  0.000130331
3650  -0.0110388    0.692355    -1.05125  -5.38582e-05
3660  -0.00921692     0.69291   -0.924433  0.000123113
3670  -0.0135011    0.691606    -1.43212  0.000155228
3680  -0.0123215    0.691965    -1.78156  0.000164249
3690  -0.0167861    0.690607    -1.27356  0.00026936
3700  -0.0177087    0.690326    -1.74926  6.8099e-05
3710   -0.018148    0.690192    -1.65425  0.000189988
3720  -0.0215084     0.68917    -1.14684  -3.69339e-05
3730  -0.0174094    0.690417    -1.43274  -2.8364e-05
3740  -0.0209412    0.689342    -1.78177  0.000166413
3750  -0.0207376    0.689404    -1.43249  5.30356e-05
3760  -0.0220019    0.689019    -1.01994  -2.03915e-05
3770  -0.0203298    0.689528   -0.956547  0.000110713
3780  -0.0242161    0.688346    -1.62285  2.85795e-05
3790  -0.0209014    0.689354    -1.71844  5.39171e-05
3800  -0.0252945    0.688018    -1.30608  8.63357e-05
3810  -0.0226281    0.688829   -0.576667  2.13023e-05
3820  -0.0257205    0.687888    -1.37018  0.000260222
3830  -0.0278325    0.687245    -1.43348  0.000145434
3840  -0.0286292    0.687003     -1.2748  -2.997e-06
3850  -0.0277726    0.687263    -1.14808  0.000187823
3860  -0.0323857     0.68586   -0.893744  0.000113221
3870   -0.030037    0.686574   -0.926137  2.26835e-05
3880  -0.0328393    0.685722    -1.56008  0.000214013
3890  -0.0343173    0.685272    -1.24309  3.95292e-05
3900  -0.0336299    0.685481    -1.37006  -8.56012e-05
3910  -0.0326053    0.685793    -1.30657  0.000156991
3920  -0.0367697    0.684526    -1.11631  3.13414e-05
3930  -0.0332321    0.685602    -1.14768  -0.000261985
3940    -0.03153     0.68612   -0.894612  -9.47881e-05
3950  -0.0313363    0.686179    -1.11671  -0.00015417
3960  -0.0284466    0.687058    -1.43413  -0.00010377
3970  -0.0292609    0.686811    -1.46581  8.15758e-05
3980  -0.0300782    0.686562    -1.43416  -1.12731e-05
3990  -0.0290355    0.686879    -1.27576  3.1263e-05
4000  -0.0307034    0.686372    -1.59262  -1.14298e-05
4010  -0.0288069    0.686949    -1.02173  -0.00035167
4020    -0.02367    0.688512   -0.292664  -0.000122339
4030  -0.0263601    0.687693   -0.609772  0.000167011
4040  -0.0270102    0.687495    -1.52985  0.000125023
4050  -0.0288605    0.686932   -0.863397  0.000108196
4060  -0.0291742    0.686837    -1.27613  -8.0234e-05
4070  -0.0272559    0.687421   -0.800316  0.000100283
4080  -0.0311798    0.686227   -0.895262  0.00014324
4090  -0.0301207    0.686549    -1.65682  1.47109e-05
4100   -0.031474    0.686137      -1.308  -6.32411e-05
4110  -0.0288558    0.686934    -1.43518  -2.8511e-05
4120  -0.0309038    0.686311    -1.14948  9.24179e-05
4130  -0.0307042    0.686371    -1.05431  -0.000106894
4140  -0.0287659    0.686961    -1.40369  -6.35937e-05
4150  -0.0294323    0.686758   -0.896038  0.000162623
4160  -0.0320184    0.685972   -0.864141  -0.000142623
4170  -0.0265799    0.687626    -1.18212  9.37695e-05
4180  -0.0338938    0.685401   -0.578805  0.000277009
4190    -0.03212    0.685941    -1.56243  -1.96863e-05
4200     -0.0335    0.685521   -0.610702  7.66689e-05
4210  -0.0336534    0.685474   -0.959583  0.000332493
4220  -0.0401499    0.683497   -0.641948  0.000438985
4230  -0.0424331    0.682802   -0.832058  -0.000160184
4240  -0.0369462    0.684472    -1.11854  -0.000443363
4250  -0.0335659    0.685501   -0.738103  -3.70808e-05
4260  -0.0362046    0.684698   -0.991728  7.77267e-05
4270  -0.0351204    0.685028   -0.769473  4.27125e-05
4280  -0.0370589    0.684438   -0.738041  9.61397e-05
4290  -0.0370432    0.684443   -0.706392  -0.000198127
4300  -0.0330963    0.685644   -0.230605  6.09688e-05
4310  -0.0382626    0.684072   -0.420561  0.000293483
4320   -0.038966    0.683858   -0.674681  -1.41039e-06
4330  -0.0382344     0.68408   -0.642784  -0.000172241
4340  -0.0355212    0.684906   -0.770155  6.16448e-05
4350  -0.0394673    0.683705   -0.801401  0.000332121
4360  -0.0421636    0.682885    -1.02313  -0.000182055
4370  -0.0358262    0.684813    -1.18264  -9.13309e-05
4380   -0.040337     0.68344   -0.833917  0.000215903
4390  -0.0401442    0.683499   -0.484509  0.000107981
4400  -0.0424966    0.682783    -1.11925  -6.48376e-05
4410  -0.0388475    0.683894   -0.421459  -6.36652e-07
4420  -0.0424839    0.682787    -1.05568  5.35155e-05
4430  -0.0399178    0.683568   -0.992378  1.76001e-05
4440  -0.0428359     0.68268    -1.24622  0.000237343
4450  -0.0446646    0.682123    -0.42121  0.000146423
4460  -0.0457643    0.681789   -0.897122  -6.47495e-05
4470  -0.0433697    0.682518   -0.707135  -0.000147687
4480  -0.0428106    0.682688   -0.389841  4.56508e-05
4490  -0.0442827     0.68224   -0.675611  0.000221554
4500  -0.0472417    0.681339   -0.865194  6.45436e-05
4510  -0.0455735    0.681847   -0.738908  -0.000139215
4520  -0.0444574    0.682187   -0.580354  -0.000102535
4530  -0.0435228    0.682471   -0.580416  0.000298037
4540  -0.0504181    0.680373    -1.21439  0.000438564
4550  -0.0522941    0.679802   -0.865535   0.0001318
4560  -0.0530542    0.679571   -0.865876  -9.26824e-05
4570  -0.0504405    0.680366    -1.18345  7.63457e-05
4580  -0.0545811    0.679106   -0.770619  7.60421e-05
4590  -0.0519613    0.679903    0.212851  7.69824e-05
4600  -0.0561207    0.678638   -0.135658  8.61006e-05
4610  -0.0536833    0.679379    -1.34213  -0.000253679
4620  -0.0510471    0.680181   -0.676106  -4.60424e-05
4630  -0.0527625    0.679659    -1.53236  0.000133887
4640  -0.0537249    0.679367    -1.05648  0.000277146
4650  -0.0583054    0.677973    -1.46891  0.000373168
4660  -0.0611882    0.677096    -1.15158  5.00288e-05
4670   -0.059306    0.677668    -2.07182  7.93427e-05
4680  -0.0627751    0.676613   -0.834815  0.000213366
4690  -0.0635733     0.67637    -0.73959  -6.48387e-06
4700  -0.0626454    0.676652   -0.548643  5.13803e-05
4710  -0.0646009    0.676057   -0.929824  8.02439e-05
4720  -0.0642503    0.676164   -0.200473  3.46713e-06
4730  -0.0646703    0.676036   -0.263865  -5.46906e-05
4740  -0.0631565    0.676497   -0.708127  0.000139234
4750  -0.0674549    0.675189   -0.359028  0.000226687
4760  -0.0676902    0.675117   -0.200289  4.30163e-05
4770  -0.0683153    0.674927   -0.295576  0.000286921
4780  -0.0734286    0.673371   -0.485841  -0.000181438
4790  -0.0646865    0.676031   -0.422791  -0.000366822
4800  -0.0660922    0.675603   -0.581841  0.000238968
4810  -0.0694659    0.674577    -1.43782  0.000229889
4820    -0.07069    0.674204   -0.549914  0.000122633
4830  -0.0719185    0.673831    -1.05726  0.000172466
4840  -0.0741393    0.673155   -0.549417  4.96581e-06
4850  -0.0720179      0.6738    0.116511  -0.000222397
4860  -0.0696913    0.674508    -1.08912  -0.0001637
4870  -0.0687439    0.674797   -0.232588  0.00024318
4880  -0.0745549    0.673028    -1.02573  0.000392963
4890  -0.0766031    0.672405   -0.581128  -0.000104289
4900  -0.0724692    0.673663   -0.962558  5.59639e-05
4910  -0.0777224    0.672064   -0.518017  0.000185561
4920  -0.0761804    0.672534   -0.581655  2.62778e-05
4930  -0.0782479    0.671905   -0.518048   0.0001266
4940  -0.0787124    0.671763   -0.486523  -3.40153e-05
4950  -0.0775676    0.672112   -0.645108    0.000158
4960  -0.0818724    0.670802   -0.645293  -0.000165855
4970  -0.0742505    0.673121   -0.550502  -0.000205913
4980  -0.0777541    0.672055   -0.741077  0.000391738
4990  -0.0820853    0.670737   -0.613831  0.00098939
