Time   Number   
ps   
0          27          17
10          24          16
20          30          21
30          26          25
40          28          19
50          30          21
60          28          27
70          30          25
80          28          24
90          25          28
100          28          27
110          32          22
120          27          22
130          30          20
140          29          21
150          32          23
160          31          22
170          29          24
180          29          21
190          32          23
200          30          20
210          29          19
220          27          26
230          30          23
240          33          25
250          34          18
260          31          25
270          29          20
280          29          22
290          30          20
300          27          26
310          28          24
320          33          24
330          30          18
340          30          22
350          28          26
360          31          23
370          33          21
380          31          23
390          27          24
400          30          20
410          33          23
420          30          19
430          31          22
440          30          23
450          26          23
460          30          25
470          27          27
480          27          25
490          29          25
500          29          25
510          28          29
520          27          25
530          31          23
540          30          23
550          30          20
560          29          26
570          28          27
580          31          26
590          32          25
600          29          30
610          32          26
620          33          25
630          30          24
640          29          24
650          28          24
660          34          26
670          30          27
680          32          25
690          28          31
700          33          28
710          30          29
720          35          25
730          34          25
740          33          27
750          32          23
760          36          24
770          31          22
780          33          26
790          32          21
800          28          24
810          33          26
820          24          23
830          32          22
840          30          23
850          29          24
860          34          19
870          31          21
880          31          20
890          30          24
900          31          24
910          33          25
920          33          21
930          32          19
940          31          20
950          26          26
960          29          21
970          32          24
980          35          22
990          33          21
1000          32          25
1010          31          24
1020          33          26
1030          29          21
1040          29          24
1050          31          26
1060          33          22
1070          32          24
1080          31          27
1090          32          25
1100          27          24
1110          29          21
1120          33          21
1130          30          26
1140          29          27
1150          26          26
1160          28          22
1170          30          26
1180          31          22
1190          32          23
1200          29          20
1210          33          21
1220          34          23
1230          32          28
1240          32          24
1250          31          25
1260          34          22
1270          34          24
1280          32          23
1290          32          21
1300          34          24
1310          32          25
1320          32          22
1330          32          24
1340          32          21
1350          33          19
1360          30          27
1370          34          21
1380          30          31
1390          34          25
1400          34          26
1410          36          25
1420          36          22
1430          33          24
1440          30          27
1450          31          19
1460          32          28
1470          33          25
1480          33          21
1490          35          19
1500          32          23
1510          35          24
1520          35          26
1530          28          28
1540          31          28
1550          30          28
1560          35          21
1570          34          23
1580          35          23
1590          33          19
1600          33          23
1610          33          23
1620          32          23
1630          35          24
1640          34          23
1650          31          20
1660          27          27
1670          34          24
1680          31          34
1690          34          24
1700          34          23
1710          33          21
1720          33          21
1730          33          22
1740          28          23
1750          33          17
1760          30          23
1770          30          23
1780          29          19
1790          30          22
1800          31          23
1810          30          25
1820          33          21
1830          33          24
1840          30          22
1850          31          22
1860          30          21
1870          31          21
1880          30          20
1890          35          18
1900          32          20
1910          32          22
1920          31          21
1930          32          21
1940          30          18
1950          28          23
1960          32          28
1970          36          23
1980          33          22
1990          37          26
2000          32          24
2010          32          22
2020          33          23
2030          34          24
2040          33          25
2050          35          22
2060          38          26
2070          32          21
2080          31          24
2090          33          27
2100          34          22
2110          36          24
2120          32          28
2130          33          22
2140          32          29
2150          33          22
2160          35          22
2170          31          27
2180          30          26
2190          32          36
2200          30          28
2210          34          23
2220          35          24
2230          35          24
2240          35          27
2250          33          26
2260          36          22
2270          34          27
2280          35          22
2290          34          28
2300          34          25
2310          37          24
2320          35          27
2330          35          22
2340          33          22
2350          34          28
2360          35          25
2370          34          25
2380          31          22
2390          28          26
2400          36          24
2410          35          26
2420          33          28
2430          35          25
2440          35          30
2450          30          29
2460          35          23
2470          37          23
2480          33          26
2490          36          29
2500          34          25
2510          30          31
2520          33          28
2530          34          26
2540          34          29
2550          36          25
2560          37          29
2570          35          23
2580          36          23
2590          36          23
2600          35          24
2610          32          29
2620          39          25
2630          40          25
2640          34          31
2650          34          23
2660          37          25
2670          33          30
2680          37          26
2690          31          24
2700          35          31
2710          33          26
2720          32          24
2730          33          26
2740          31          28
2750          33          28
2760          33          26
2770          37          28
2780          39          26
2790          35          28
2800          39          28
2810          34          28
2820          34          27
2830          37          25
2840          30          29
2850          32          29
2860          32          26
2870          32          27
2880          34          25
2890          37          29
2900          37          26
2910          34          30
2920          33          32
2930          39          30
2940          35          31
2950          35          29
2960          37          29
2970          40          27
2980          36          30
2990          40          29
3000          37          25
3010          38          27
3020          38          29
3030          35          24
3040          33          26
3050          36          26
3060          36          25
3070          37          27
3080          38          29
3090          39          28
3100          37          27
3110          35          25
3120          37          31
3130          37          32
3140          38          27
3150          36          27
3160          38          29
3170          36          29
3180          35          24
3190          36          24
3200          35          22
3210          33          27
3220          39          27
3230          35          27
3240          38          25
3250          34          25
3260          35          27
3270          35          29
3280          35          29
3290          33          32
3300          37          26
3310          31          28
3320          37          24
3330          35          27
3340          36          27
3350          39          24
3360          36          26
3370          36          31
3380          33          30
3390          37          27
3400          36          29
3410          36          29
3420          40          26
3430          37          24
3440          36          26
3450          34          29
3460          33          25
3470          36          27
3480          39          27
3490          35          25
3500          36          28
3510          35          28
3520          36          26
3530          34          29
3540          34          32
3550          36          29
3560          34          28
3570          34          32
3580          31          28
3590          33          32
3600          32          27
3610          35          33
3620          36          26
3630          36          29
3640          32          31
3650          34          23
3660          36          24
3670          33          29
3680          35          25
3690          35          23
3700          33          28
3710          32          25
3720          33          24
3730          34          25
3740          33          22
3750          33          24
3760          32          20
3770          27          22
3780          30          24
3790          29          24
3800          30          28
3810          35          21
3820          33          26
3830          33          23
3840          32          21
3850          30          26
3860          30          29
3870          35          25
3880          31          21
3890          37          25
3900          31          25
3910          31          29
3920          33          25
3930          33          23
3940          30          22
3950          33          23
3960          29          26
3970          31          21
3980          32          20
3990          36          23
4000          30          27
4010          33          28
4020          33          24
4030          32          21
4040          33          23
4050          34          21
4060          31          26
4070          32          22
4080          32          24
4090          36          22
4100          35          20
4110          36          24
4120          32          24
4130          33          22
4140          31          25
4150          37          21
4160          32          22
4170          34          24
4180          33          26
4190          32          22
4200          33          22
4210          36          22
4220          33          24
4230          35          24
4240          32          24
4250          33          24
4260          30          24
4270          34          24
4280          29          25
4290          34          24
4300          35          22
4310          34          25
4320          32          22
4330          36          21
4340          35          24
4350          31          28
4360          33          25
4370          34          23
4380          33          25
4390          35          24
4400          36          24
4410          31          25
4420          36          23
4430          36          21
4440          34          25
4450          35          25
4460          36          22
4470          33          20
4480          32          26
4490          33          24
4500          32          23
4510          32          26
4520          31          19
4530          31          22
4540          35          19
4550          32          20
4560          31          22
4570          31          21
4580          29          24
4590          33          22
4600          32          21
4610          33          20
4620          32          22
4630          33          22
4640          33          22
4650          32          27
4660          32          20
4670          37          22
4680          35          28
4690          31          25
4700          29          23
4710          33          21
4720          34          25
4730          37          25
4740          36          19
4750          32          28
4760          34          25
4770          32          24
4780          31          20
4790          38          21
4800          31          26
4810          36          22
4820          34          23
4830          35          22
4840          34          23
4850          30          25
4860          31          28
4870          33          25
4880          35          25
4890          30          26
4900          33          24
4910          32          21
4920          30          25
4930          29          26
4940          33          24
4950          36          25
4960          31          25
4970          30          23
4980          36          24
4990          30          24
5000          34          26
5010          35          20
5020          33          24
5030          33          23
5040          36          26
5050          30          21
5060          31          23
5070          30          26
5080          34          21
5090          36          24
5100          31          22
5110          34          21
5120          32          24
5130          33          20
5140          28          22
5150          32          20
5160          31          22
5170          33          23
5180          33          20
5190          31          26
5200          33          20
5210          26          26
5220          29          26
5230          34          26
5240          35          22
5250          32          22
5260          28          26
5270          31          21
5280          31          26
5290          30          24
5300          33          26
5310          30          24
5320          30          24
5330          29          23
5340          33          20
5350          31          24
5360          32          24
5370          30          30
5380          31          22
5390          30          30
5400          30          22
5410          29          22
5420          29          21
5430          30          23
5440          31          23
5450          30          22
5460          30          23
5470          30          19
5480          28          21
5490          28          20
5500          28          23
5510          31          25
5520          27          26
5530          29          18
5540          28          25
5550          29          18
5560          33          19
5570          33          26
5580          31          25
5590          32          24
5600          32          24
5610          31          25
5620          33          21
5630          34          21
5640          34          24
5650          31          26
5660          32          23
5670          32          24
5680          34          24
5690          33          29
5700          31          24
5710          30          22
5720          30          23
5730          31          21
5740          31          22
5750          29          21
5760          29          21
5770          29          23
5780          33          18
5790          31          25
5800          31          18
5810          33          22
5820          31          27
5830          31          24
5840          30          20
5850          33          23
5860          33          21
5870          29          23
5880          31          25
5890          31          23
5900          33          22
5910          29          19
5920          29          19
5930          31          24
5940          36          24
5950          33          23
5960          30          20
5970          32          23
5980          30          18
5990          30          21
6000          33          17
6010          32          23
6020          29          21
6030          31          21
6040          32          24
6050          34          25
6060          35          26
6070          32          22
6080          31          23
6090          32          25
6100          35          22
6110          34          22
6120          36          20
6130          27          25
6140          31          29
6150          31          25
6160          29          23
6170          33          22
6180          28          22
6190          33          25
6200          32          25
6210          32          23
6220          31          22
6230          30          25
6240          30          25
6250          31          25
6260          30          22
6270          30          25
6280          33          25
6290          31          29
6300          29          24
6310          30          23
6320          28          23
6330          28          25
6340          29          21
6350          33          20
6360          33          21
6370          34          24
6380          28          23
6390          31          21
6400          34          32
6410          30          30
6420          30          26
6430          34          26
6440          33          31
6450          36          24
6460          32          26
6470          34          31
6480          34          30
6490          34          24
6500          34          26
6510          36          26
6520          28          24
6530          32          26
6540          34          25
6550          35          25
6560          30          23
6570          29          21
6580          30          27
6590          32          27
6600          35          22
6610          37          23
6620          33          27
6630          33          32
6640          35          24
6650          35          32
6660          32          30
6670          34          27
6680          34          29
6690          32          25
6700          32          28
6710          33          25
6720          32          29
6730          30          26
6740          34          24
6750          32          27
6760          32          28
6770          31          27
6780          33          29
6790          31          29
6800          33          31
6810          31          29
6820          34          23
6830          34          24
6840          36          24
6850          35          27
6860          34          25
6870          33          24
6880          38          26
6890          32          22
6900          35          26
6910          30          28
6920          34          22
6930          36          21
6940          32          25
6950          35          20
6960          33          23
6970          33          23
6980          34          24
6990          33          24
7000          35          24
7010          32          25
7020          32          26
7030          34          19
7040          32          29
7050          35          26
7060          32          27
7070          36          29
7080          35          22
7090          28          27
7100          33          22
7110          31          24
7120          36          18
7130          37          25
7140          34          25
7150          33          26
7160          34          26
7170          36          26
7180          30          27
7190          32          23
7200          33          25
7210          37          21
7220          32          24
7230          32          23
7240          31          25
7250          34          21
7260          35          23
7270          36          21
7280          34          21
7290          31          24
7300          32          26
7310          34          21
7320          33          25
7330          33          26
7340          35          23
7350          34          22
7360          33          24
7370          34          25
7380          30          29
7390          33          27
7400          36          26
7410          34          31
7420          38          27
7430          34          23
7440          31          26
7450          30          22
7460          35          21
7470          35          25
7480          32          25
7490          35          25
7500          35          24
7510          35          23
7520          32          25
7530          32          28
7540          33          27
7550          34          23
7560          32          23
7570          32          24
7580          32          25
7590          36          26
7600          32          28
7610          32          23
7620          29          30
7630          37          26
7640          33          19
7650          33          20
7660          28          26
7670          33          22
7680          31          20
7690          30          23
7700          25          26
7710          29          21
7720          30          20
7730          31          19
7740          31          26
7750          30          23
7760          31          25
7770          36          28
7780          34          27
7790          34          24
7800          35          26
7810          32          24
7820          30          25
7830          30          19
7840          33          18
7850          31          21
7860          29          19
7870          27          21
7880          34          25
7890          32          20
7900          32          27
7910          30          25
7920          28          18
7930          30          20
7940          31          20
7950          27          24
7960          34          23
7970          32          25
7980          32          27
7990          30          30
8000          34          23
8010          34          23
8020          32          22
8030          30          24
8040          30          26
8050          31          27
8060          31          27
8070          30          22
8080          33          25
8090          32          22
8100          32          19
8110          31          22
8120          26          28
8130          30          22
8140          26          23
8150          29          22
8160          30          22
8170          30          21
8180          25          25
8190          29          21
8200          31          23
8210          31          21
8220          32          25
8230          29          22
8240          35          24
8250          33          24
8260          30          32
8270          33          26
8280          29          27
8290          31          26
8300          31          27
8310          30          24
8320          31          23
8330          31          24
8340          31          26
8350          32          25
8360          33          26
8370          32          24
8380          33          27
8390          34          27
8400          32          28
8410          32          29
8420          34          25
8430          33          26
8440          36          28
8450          33          25
8460          35          30
8470          32          29
8480          30          25
8490          34          27
8500          29          25
8510          31          28
8520          33          26
8530          35          26
8540          33          28
8550          31          27
8560          33          21
8570          28          29
8580          31          28
8590          32          24
8600          31          23
8610          32          21
8620          30          25
8630          35          25
8640          34          24
8650          29          22
8660          31          26
8670          30          26
8680          28          25
8690          31          26
8700          33          23
8710          29          24
8720          32          25
8730          36          25
8740          33          24
8750          29          26
8760          32          27
8770          32          26
8780          33          22
8790          31          21
8800          32          27
8810          31          21
8820          30          23
8830          31          21
8840          33          20
8850          29          22
8860          27          19
8870          32          21
8880          31          23
8890          32          20
8900          31          24
8910          30          23
8920          29          18
8930          26          24
8940          35          24
8950          26          26
8960          31          21
8970          30          29
8980          31          19
8990          28          20
9000          31          26
9010          28          22
9020          29          23
9030          31          22
9040          30          25
9050          31          20
9060          31          26
9070          32          18
9080          29          22
9090          28          23
9100          28          24
9110          31          22
9120          34          20
9130          29          24
9140          33          22
9150          33          21
9160          30          25
9170          34          23
9180          30          25
9190          31          26
9200          33          24
9210          29          26
9220          32          22
9230          30          24
9240          30          23
9250          30          21
9260          34          27
9270          34          23
9280          29          22
9290          34          22
9300          31          24
9310          31          22
9320          32          23
9330          32          20
9340          34          21
9350          35          21
9360          34          23
9370          31          23
9380          30          19
9390          33          24
9400          29          23
9410          33          24
9420          33          16
9430          33          21
9440          31          26
9450          33          27
9460          34          26
9470          28          24
9480          33          17
9490          27          21
9500          35          18
9510          31          28
9520          34          26
9530          31          32
9540          34          24
9550          36          35
9560          31          21
9570          32          17
9580          33          25
9590          33          20
9600          37          22
9610          33          20
9620          34          23
9630          32          25
9640          33          22
9650          31          24
9660          30          25
9670          32          21
9680          31          21
9690          28          23
9700          36          19
9710          30          21
9720          30          22
9730          30          23
9740          29          25
9750          33          22
9760          36          20
9770          30          22
9780          30          19
9790          28          24
9800          29          27
9810          31          26
9820          30          20
9830          32          18
9840          31          24
9850          30          27
9860          29          24
9870          31          22
9880          34          26
9890          30          23
9900          34          22
9910          30          24
9920          32          21
9930          32          24
9940          30          24
9950          28          30
9960          33          24
9970          28          21
9980          30          24
9990          34          22
10000          33          21
