Time   C(t)   
ps   
0           1           1  7.73085e-10   0.0711564
10    0.300732     0.87034   -0.558598   0.0364867
20    0.270267    0.864691    0.182502    0.001817
30    0.264392    0.863602    0.526385  0.00121185
40     0.24603    0.860197    0.130917  0.00126839
50    0.239025    0.858898    0.715648  0.00104782
60    0.225073    0.856311   -0.403641  0.00090796
70    0.220865    0.855531    0.130632  0.000307035
80    0.218932    0.855172   -0.663062  0.000568586
90    0.209494    0.853422  -0.0599934  0.000986104
100     0.19921    0.851515   -0.404095  0.000543351
110    0.198627    0.851407  -0.0948878  0.000416443
120    0.190882    0.849971    0.715312  0.000522602
130    0.188175    0.849469     1.12779  0.00018813
140    0.187119    0.849273    0.301555  2.75649e-05
150    0.187623    0.849367   -0.524948  0.000345577
160    0.180207    0.847992    -0.54226  0.000599525
170    0.175633    0.847144   -0.765442  1.92069e-05
180    0.179823    0.847921   -0.250332  0.000195315
190    0.171726    0.846419    0.146515  0.000551372
200    0.168796    0.845876   0.0948793  0.000168248
210    0.168362    0.845795  -0.0951569  2.50414e-05
220    0.168295    0.845783   0.0937358  0.000215454
230    0.164052    0.844996   -0.164206  0.000280692
240    0.162681    0.844742    -1.28383  0.00030006
250    0.158051    0.843884    -1.09383  0.00036562
260    0.155369    0.843386   -0.560111  0.000674038
270     0.14457    0.841384    -1.02412  0.000423113
280    0.146906    0.841817    0.369797  -0.000163748
290    0.147845    0.841991   -0.853485  0.000499634
300    0.136914    0.839964   -0.766468  0.000617109
310    0.135503    0.839703    -1.50733  6.60747e-05
320    0.135592    0.839719   -0.939342  -0.000140105
330    0.138305    0.840222   -0.370731  8.0476e-05
340    0.133983    0.839421   -0.904751  0.000315201
350    0.132001    0.839053    -1.23273  0.000339454
360    0.127194    0.838162  -0.0961155  9.50851e-05
370      0.1301    0.838701    -2.09316  6.75373e-05
380    0.125843    0.837911    -2.26571  0.000369285
390    0.122714    0.837331    -1.43919  0.000110323
400    0.123637    0.837502    -2.19733  6.34547e-05
410    0.121445    0.837096    -1.83599  -0.000163924
420    0.126915     0.83811   -0.734028  0.000324298
430    0.114959    0.835893   -0.975313  0.000902848
440    0.108858    0.834762    -1.66271  0.00017847
450    0.111389    0.835231    -1.50868  -0.000101161
460    0.110881    0.835137    -2.42163  -6.81158e-05
470    0.112752    0.835484   -0.459077  0.000150841
480    0.107864    0.834578    -1.11299  7.92541e-05
490    0.111167     0.83519    -0.38996  9.42983e-05
500    0.105978    0.834228    -2.42168  0.000304319
510     0.10508    0.834062   -0.544883  -0.000235416
520    0.110687    0.835101    -1.06233  -0.000245172
530    0.109984    0.834971    -1.51004  0.000453859
540     0.10161    0.833418     -1.5093  0.000699112
550   0.0960015    0.832378    -1.35345  0.000345305
560   0.0947035    0.832137    -1.01044  -0.000182666
570   0.0996549    0.833056    -1.21759   0.0002408
580   0.0898875    0.831244    -1.62997  0.000144204
590   0.0967708    0.832521    -1.30382  -0.000182617
600   0.0935399    0.831922    -1.92354  0.000188307
610   0.0930046    0.831822    -2.18246  0.000169454
620   0.0901508    0.831293     -1.3378  0.000382625
630   0.0853521    0.830404    -2.35374  5.40361e-05
640   0.0890701    0.831093    -2.07916  -5.70416e-05
650    0.086493    0.830615    -1.25228  0.000510499
660   0.0788601      0.8292    -2.00935  8.85602e-05
670   0.0847218    0.830287    -1.37319  -0.000144027
680   0.0817406    0.829734    -1.54487  6.45637e-05
690   0.0834305    0.830047    -1.52855  9.41858e-05
700   0.0798569    0.829385    -1.78659  0.000147756
710   0.0804754    0.829499    -1.68359  0.000285112
720   0.0741547    0.828327    -1.18347  0.000402861
730   0.0724182    0.828005   -0.839216  -0.000168939
740   0.0775334    0.828954   -0.271445  -0.000173874
750   0.0758956     0.82865    -1.58018  0.000379828
760   0.0699369    0.827545   -0.925376  0.00020364
770   0.0718228    0.827895   -0.632557  0.000278282
780   0.0643712    0.826513    -1.73438  2.71786e-05
790   0.0712793    0.827794    -2.04524  -0.000203463
800   0.0684405    0.827268    -1.52845  0.000210069
810   0.0670779    0.827015    -1.39107  0.000126475
820    0.065911    0.826799    -1.56247  -0.000135348
830   0.0697848    0.827517    -2.63104  0.000117186
840   0.0635673    0.826364    -2.23406  0.000275469
850   0.0642754    0.826495    -1.70083  -0.000100663
860   0.0655805    0.826737    -1.42543  6.81803e-05
870   0.0629118    0.826243    -1.37396  0.000107751
880   0.0634255    0.826338   -0.633347  0.000197677
890   0.0589583    0.825509    -1.16717  8.63112e-06
900   0.0632529    0.826306    -1.04643  -0.000629405
910   0.0715464    0.827844    -1.32337  9.85414e-05
920   0.0612821     0.82594   -0.444421  0.000332639
930   0.0648936     0.82661     -1.5643  8.90419e-06
940    0.061104    0.825907    -1.23667  0.000384281
950    0.057208    0.825185    -2.02892  0.000109182
960   0.0589204    0.825502    -0.73714  1.93514e-05
970    0.056821    0.825113    -1.32232  5.94366e-05
980   0.0577316    0.825282    -1.66752  -5.67362e-06
990   0.0569344    0.825134    -1.21929  -0.000101499
1000   0.0597616    0.825658     -1.6676  0.000256648
1010   0.0518015    0.824182    -1.73595  0.000407988
1020   0.0516018    0.824145    -1.56371  0.000100968
1030   0.0497821    0.823808    -1.08164  -0.000106256
1040    0.053727    0.824539    -1.30531  0.000157207
1050    0.046638    0.823225    -1.28814  0.000126443
1060   0.0511981    0.824071    -0.82377  -0.000613943
1070   0.0589168    0.825502    -1.06516  -0.000218604
1080   0.0555702    0.824881    -1.09983  0.000299401
1090   0.0529288    0.824391    -1.61656  0.000208334
1100   0.0514035    0.824109    -1.89194  4.75757e-06
1110   0.0528337    0.824374    -1.84039  -2.04764e-05
1120    0.051813    0.824185   -0.790339  0.000352521
1130   0.0457832    0.823067   -0.755259  0.000153365
1140   0.0487457    0.823616    -1.20347  -2.49287e-05
1150   0.0462818    0.823159    -1.85757  -0.000184401
1160   0.0524338      0.8243    -1.15179  -0.000276867
1170   0.0518191    0.824186    -1.56566  0.000313417
1180   0.0461654    0.823137    -1.32431  0.000349966
1190   0.0448198    0.822888    -1.44491  -0.000154008
1200   0.0492456    0.823709    -1.80705  -0.000128292
1210   0.0473857    0.823364    -1.20411  0.00022746
1220   0.0446964    0.822865   -0.670176  0.000269217
1230   0.0420013    0.822365   -0.601228  0.000145618
1240    0.041784    0.822325    -1.70386  8.91389e-05
1250   0.0402186    0.822035    -1.63478  0.000457668
1260   0.0326307    0.820628    -1.82308  -9.23052e-05
1270   0.0420647    0.822377   -0.687959  -0.00027878
1280   0.0382063    0.821662    -1.32471  -6.6605e-05
1290   0.0433968    0.822624    -1.03226  -0.000139221
1300   0.0409907    0.822178    -1.36008  0.000329618
1310   0.0368044    0.821402    -1.65231  3.24829e-05
1320    0.040341    0.822057     -1.4457  -0.000207578
1330    0.040956    0.822171    -1.27407  0.000252549
1340     0.03529    0.821121    -1.97963  0.000451995
1350   0.0319161    0.820495    -1.06687  -0.000192406
1360   0.0391382    0.821834   -0.584957  -0.000239579
1370   0.0367077    0.821384   -0.240671  0.000311761
1380   0.0329029    0.820678   -0.188851  0.000133306
1390   0.0340415    0.820889    -1.29145  -0.000235175
1400   0.0376064     0.82155   -0.757984  -0.000224985
1410   0.0385412    0.821724   -0.705861  -0.000141198
1420   0.0404304    0.822074    -1.85976  -0.000199638
1430    0.042534    0.822464    -1.18851  0.000266179
1440   0.0351068    0.821087   -0.929715  0.000144188
1450   0.0396502    0.821929    -1.37788  -0.000465448
1460   0.0444158    0.822813   -0.740822  2.25179e-05
1470   0.0391999    0.821846    -1.72228  0.00041596
1480   0.0360966     0.82127    -1.34345  -0.00017442
1490   0.0426883    0.822493    -1.53378  -0.000243806
1500   0.0409727    0.822175    -1.25773  0.000321469
1510   0.0362589    0.821301     -1.4987  0.00020978
1520   0.0367771    0.821397   -0.844412  -0.000212432
1530   0.0405075    0.822088    -1.72282  4.98574e-05
1540   0.0357799    0.821212   -0.947667  0.000178245
1550   0.0369426    0.821427    -1.08575  3.95065e-05
1560   0.0349898    0.821065   -0.258993  -7.35644e-05
1570   0.0384139      0.8217    -1.63659  -0.000175899
1580   0.0385078    0.821718    -0.44839  -3.90559e-06
1590    0.038492    0.821715    -1.43051  -0.000117266
1600   0.0408531    0.822152   -0.983335  9.33178e-05
1610   0.0366257    0.821369   -0.966443  0.000206871
1620   0.0367157    0.821385     -1.3276  0.000397219
1630   0.0286813    0.819895    -1.03436  0.00032711
1640   0.0301735    0.820172      -1.999  -0.000214634
1650    0.032974    0.820691    -1.24079  0.000171093
1660   0.0267516    0.819538    -1.34451  0.000236252
1670   0.0282489    0.819815    -1.00013  -0.000187889
1680   0.0305094    0.820234     -0.6907  0.000204669
1690   0.0241556    0.819056   -0.776288  0.00023728
1700   0.0257638    0.819354  -0.0709072  -0.000139012
1710   0.0269358    0.819572     -1.4139  -0.000150263
1720   0.0287691    0.819912      -1.207  0.000145522
1730   0.0240254    0.819032   -0.690347  0.000370458
1740   0.0213599    0.818538   -0.328664  4.16763e-05
1750   0.0231919    0.818878   -0.363441  -0.000414578
1760   0.0296514    0.820075   -0.381426  -0.000283103
1770   0.0288539    0.819927   -0.880669  0.000118375
1780   0.0272839    0.819636   -0.656479  0.000273299
1790   0.0233879    0.818914    -0.62266  0.000102463
1800   0.0252347    0.819256    -0.76017  -0.000129578
1810   0.0259795    0.819394    -1.01894  0.000335741
1820   0.0185199    0.818011   -0.381174  0.000136344
1830   0.0232526    0.818889   -0.932372  -0.000407232
1840   0.0266645    0.819521   -0.760573  -0.00029159
1850   0.0290844     0.81997    0.152072  0.000153333
1860   0.0235978    0.818953   -0.536601  0.000136633
1870   0.0263517    0.819463  -0.0887583  -0.000214409
1880    0.027886    0.819748   -0.743446  6.45477e-05
1890   0.0250608    0.819224   -0.158379  0.000226737
1900   0.0233513    0.818907   -0.571193  0.000165677
1910   0.0217472     0.81861   -0.192584  -0.000159312
1920   0.0265375    0.819498   -0.192517  0.000166561
1930    0.018416    0.817992   -0.571328  0.000104327
1940    0.024451    0.819111   -0.244741  -0.000412794
1950   0.0266719    0.819523    0.271967  -0.000216724
1960   0.0287855    0.819915    0.305701  0.000279776
1970   0.0210764    0.818485   -0.416522  0.000110258
1980   0.0265803    0.819506    0.185571  8.29027e-05
1990   0.0194183    0.818178   -0.657639  -9.33499e-05
2000   0.0284473    0.819852   -0.452056  -0.000342203
2010   0.0262624    0.819447   -0.641688  9.36713e-05
2020   0.0265739    0.819505   -0.469402  2.00908e-05
2030   0.0258606    0.819372   -0.693139  0.000179724
2040   0.0229794    0.818838    -0.22805  0.000208542
2050   0.0216897    0.818599  -0.0899016  0.000192036
2060   0.0191387    0.818126    0.391995  -8.2083e-05
2070   0.0233314    0.818903    0.925713  -0.000213637
2080   0.0234114    0.818918    0.615648  4.35407e-05
2090   0.0224605    0.818742   -0.417128  -8.83996e-05
2100   0.0251794    0.819246   -0.435113  0.000135878
2110    0.019743    0.818238   -0.366047  7.81291e-05
2120   0.0236168    0.818956   -0.262894  -0.000215036
2130   0.0240437    0.819036   -0.607198  9.29004e-06
2140    0.023431    0.818922   0.0817118  2.07176e-05
2150   0.0236293    0.818959    0.304995  0.000159633
2160   0.0202383     0.81833   -0.142395  -4.28497e-05
2170   0.0244863    0.819118    0.253544  -0.000100486
2180   0.0222481    0.818703    -1.12453  0.000398232
2190   0.0165217    0.817641   -0.573009  -6.60585e-05
2200   0.0235692    0.818948    -0.12631  -0.000391449
2210   0.0243507    0.819092   -0.126242  3.84457e-05
2220   0.0228003    0.818805   -0.177424  0.000102624
2230   0.0222982    0.818712    0.339233  -3.73046e-05
2240   0.0235464    0.818943   -0.143303  3.87994e-05
2250   0.0215222    0.818568   -0.143118  2.11034e-05
2260   0.0231243    0.818865   -0.504397  -7.89175e-06
2270   0.0216801    0.818597   0.0292694  -0.000313561
2280   0.0293956    0.820028   0.0798453  -1.97371e-05
2290   0.0220748     0.81867  -0.0397965  0.000344324
2300   0.0225091    0.818751    0.200631  6.27315e-05
2310   0.0208202    0.818438   -0.746473  0.000127649
2320   0.0199561    0.818278    0.131834  -0.000108458
2330   0.0229893     0.81884    0.321029  0.000140234
2340   0.0171514    0.817758   -0.918271  -0.000102993
2350   0.0250492    0.819222   -0.729362  -0.000630674
2360   0.0297649    0.820096   -0.436929  0.000140089
2370   0.0222474    0.818702   -0.402119  0.000312307
2380   0.0235188    0.818938    0.320844  -0.000204798
2390   0.0263434    0.819462   -0.196166  0.000128822
2400   0.0209423     0.81846   -0.109535  -1.47868e-05
2410   0.0266391    0.819517  -0.0411584   -0.000331
2420   0.0275623    0.819688   -0.385445  0.000404645
2430   0.0185462    0.818016    -0.33312  0.00017696
2440   0.0240231    0.819032   0.0619611  -0.000392092
2450   0.0263881     0.81947    0.217018  0.000370442
2460   0.0166143    0.817658   -0.454293  0.000840294
2470  0.00958219    0.816354  -0.0232404  2.26463e-05
2480   0.0161614    0.817574   -0.402943  -0.000332607
2490   0.0162343    0.817587  -0.0240143  0.000155856
2500   0.0130442    0.816996   -0.126898  0.000168023
2510   0.0128739    0.816964     0.26926  -0.00016468
2520   0.0163378    0.817607   -0.213461  -6.17671e-05
2530   0.0141092    0.817193   -0.299823  0.000363193
2540  0.00907397     0.81626    0.389372  0.000169373
2550   0.0107217    0.816565    0.458101  -0.000268622
2560   0.0144464    0.817256     1.02577  -9.2273e-05
2570   0.0125672    0.816908    0.767662  7.82898e-05
2580   0.0128806    0.816966    0.388346  -0.000270149
2590   0.0179702    0.817909   -0.179946  -6.83891e-05
2600   0.0142484    0.817219    0.285378  -7.81128e-06
2610   0.0181264    0.817938   -0.421365  3.56491e-05
2620   0.0135354    0.817087   -0.249079  -9.4041e-05
2630   0.0200072    0.818287    -0.54173  -1.34528e-05
2640   0.0138045    0.817137   -0.902875  0.000429943
2650   0.0114084    0.816693   -0.868788  6.67979e-05
2660   0.0124685    0.816889    -1.07572  -0.000477197
2670   0.0209523    0.818462   -0.422004  -4.41998e-05
2680   0.0133525    0.817053   -0.576406  0.000190204
2690   0.0171482    0.817757   -0.094812  -0.000355173
2700    0.020456     0.81837   -0.198184  0.000104167
2710   0.0150649    0.817371   -0.369965  0.000602113
2720   0.0084137    0.816137   -0.869108  0.000173376
2730   0.0115974    0.816728   -0.128983  -0.000250155
2740   0.0134168    0.817065   -0.145758  -8.84156e-05
2750   0.0133657    0.817056   -0.886925  -0.000189095
2760   0.0171987    0.817766   -0.714521  -0.000421296
2770   0.0217916    0.818618   -0.336265  8.63905e-05
2780   0.0154709    0.817446   -0.938829  0.000154956
2790   0.0186925    0.818043     -1.3522  -0.000360413
2800   0.0226791    0.818783     -1.0771  4.22711e-05
2810   0.0178471    0.817887    -1.40405  0.000111319
2820   0.0204528     0.81837    -1.79979  -0.000267272
2830   0.0231925    0.818878    -1.09417  8.66154e-05
2840   0.0187204    0.818048   -0.973303  0.000232105
2850   0.0185504    0.818017    -1.23205  0.000156869
2860   0.0155831    0.817467     -1.5762  6.82605e-05
2870   0.0171852    0.817764    -1.61105  -0.00014782
2880   0.0185395    0.818015   -0.818935  6.21208e-05
2890   0.0159428    0.817533    -1.33561  0.000323896
2900   0.0120616    0.816814    -1.47298  -0.000199719
2910   0.0199371    0.818274    -2.02499  -0.00010984
2920   0.0142584    0.817221    -1.55997  0.000357038
2930   0.0127964     0.81695    -1.38735  -3.33829e-05
2940    0.014926    0.817345    -1.62829  -0.000103926
2950   0.0148749    0.817335    -1.52573  0.000365861
2960  0.00760879    0.815988    -1.16334  0.000166384
2970   0.0115472    0.816718    -1.78372  -0.000355511
2980    0.014719    0.817307    -1.00897  -0.000194897
2990   0.0154452    0.817441    -1.90471  -2.72592e-05
3000   0.0152642    0.817408    -1.78424  0.000258078
3010   0.0102836    0.816484    -2.12803  0.000381886
3020  0.00762647    0.815991    -1.99028  -0.000169823
3030   0.0136801    0.817114    -1.59478  -0.000313047
3040   0.0138874    0.817152    -2.28394  5.10628e-05
3050   0.0126588    0.816925    -2.07666  -7.29858e-05
3060   0.0153471    0.817423    -1.83627  0.000129819
3070   0.0100624    0.816443    -1.61253  0.000247519
3080   0.0103967    0.816505    -2.90387  -9.25302e-05
3090    0.011913    0.816786    -2.19733  -0.000401607
3100   0.0184289    0.817994    -1.80194  -0.000132535
3110   0.0145637    0.817278    -1.95685  0.000611098
3120  0.00620693    0.815728    -2.16292  1.84192e-05
3130   0.0141954    0.817209    -1.87077  1.97533e-05
3140  0.00581187    0.815655    -1.74958  0.000349644
3150  0.00720247    0.815913    -1.71585  -0.000159232
3160   0.0089965    0.816245   -0.682738  0.000178985
3170  0.00362277    0.815249    -1.75032  -5.36183e-05
3180   0.0100689    0.816444    -1.09631  9.35106e-05
3190  0.00175256    0.814902   -0.407416  0.000139446
3200  0.00727994    0.815927    -1.44073  -0.000466878
3210   0.0110901    0.816634    -1.71651  -8.06364e-05
3220  0.00889267    0.816226    -1.66506  -4.77357e-05
3230   0.0120448    0.816811    -1.61354  0.000113617
3240  0.00662032    0.815805    -1.57884  0.000187134
3250  0.00830216    0.816117    -1.37235  -0.000134785
3260  0.00931602    0.816305    -1.87197  -3.41383e-05
3270  0.00898493    0.816243    -1.06236  0.000255909
3280  0.00419785    0.815356    -1.09683  0.000296829
3290  0.00304834    0.815143      -1.079  -0.000128453
3300   0.0067669    0.815832    -1.76866  -0.000243565
3310  0.00791963    0.816046    -1.06279  0.000162752
3320  0.00351187    0.815228    -1.56185  0.000121959
3330  0.00548045    0.815593    -1.18329  -0.000183501
3340   0.0071819    0.815909    -1.02845  -0.000156772
3350   0.0086159    0.816175    -1.97574  0.000395821
3360  -0.00073452    0.814441      -1.321  0.000102093
3370  0.00657403    0.815796   -0.270916  -0.000553847
3380   0.0103424    0.816495    -1.78687  -7.56217e-05
3390  0.00808647    0.816077    -1.42483  0.000129819
3400  0.00774605    0.816014   -0.667207  6.85016e-05
3410  0.00671643    0.815823    -1.49388  0.000220131
3420  0.00334343    0.815197     -2.1304  0.000117041
3430  0.00437562    0.815389    -1.59703  -0.000234612
3440  0.00803568    0.816067    -1.28757  4.18049e-05
3450  0.00353952    0.815234   -0.804953  -0.000118246
3460   0.0104006    0.816506    -1.61446  -2.74199e-05
3470  0.00408791    0.815335    -1.64897  0.000235673
3480  0.00568714    0.815632    -0.92562  -0.000271531
3490  0.00951854    0.816342    -1.21881  -0.000369751
3500   0.0130822    0.817003   -0.323106  0.000160035
3510  0.00631783    0.815749    -1.28757  -1.15721e-06
3520   0.0131053    0.817007   -0.754326  -0.000119195
3530  0.00870173    0.816191   -0.926041  0.000553333
3540  0.00203865    0.814955    -1.45924  0.000365058
3550  0.00140057    0.814837    -1.44278  0.000134367
3560  -0.000648692    0.814457    -1.01218  -9.80752e-05
3570  0.00336207    0.815201     -1.0989  -7.66986e-05
3580  0.000885281    0.814741    -2.11483  -3.49901e-05
3590  0.00406188     0.81533    -1.30551  -0.000381934
3600  0.00852396    0.816158    -1.87429  0.000404741
3610  -0.00403295    0.813829    -0.90935  0.000333572
3620  0.00185253    0.814921    -1.37442  -0.000546679
3630  0.00690063    0.815857    -1.23711  -2.7886e-05
3640  0.00241025    0.815024     -1.3229  8.55064e-05
3650   0.0051905     0.81554    -1.92522  -0.000163989
3660  0.00569004    0.815632    -1.51264  -1.43207e-05
3670  0.00547691    0.815593     -1.3224  -0.000495102
3680   0.0155921    0.817468    -1.25463  -0.000467039
3690   0.0148177    0.817325   -0.686336  0.000185526
3700   0.0118815     0.81678    -0.70338  0.000330164
3710   0.0082144      0.8161    -1.58086  -0.000239306
3720   0.0166676    0.817668    -1.30652  -0.000202997
3730   0.0122744    0.816853     -1.8229  0.000418371
3740  0.00830023    0.816116     -1.4094  0.000260087
3750   0.0070726    0.815889    -1.52968  -2.23088e-05
3760  0.00874641    0.816199   -0.444749  -0.000560614
3770   0.0182849    0.817968    -1.58263  0.000196392
3780  0.00481858    0.815471    -2.13275  0.000165837
3790   0.0149681    0.817353    -2.01279  -0.00062889
3800   0.0173964    0.817803    -1.66847  0.000188982
3810   0.0111885    0.816652    -1.23801  0.000115482
3820   0.0150867    0.817375    -1.80653  6.52388e-05
3830  0.00988371     0.81641    -1.22041  0.000175144
3840   0.0115839    0.816725      -1.358  -0.000126042
3850   0.0124045    0.816877    -1.37599  -2.31124e-05
3860   0.0120461    0.816811    -1.49665  -3.81404e-05
3870   0.0131673    0.817019    -1.85792  -0.000341929
3880   0.0188847    0.818079    -1.61742  0.000770587
3890  -0.00224438    0.814161    -1.59927  0.000533081
3900  0.00822308    0.816102   -0.928328  -0.000661421
3910    0.010984    0.816614    -1.13552  6.91121e-06
3920  0.00808486    0.816076    -2.13386  0.000305477
3930  0.00487451    0.815481    -1.89301  0.000373769
3940  0.000609474     0.81469    -1.41044  0.000404822
3950  -0.00322192     0.81398    -1.06611  3.08916e-05
3960  -8.35777e-06    0.814576    -0.96307  -0.000111303
3970  -0.000995861    0.814393    -2.06505  -0.000134689
3980  0.00268542    0.815075    -1.70357  -0.000225274
3990  0.00350962    0.815228    -1.27354  0.00011381
4000  0.000409209    0.814653    -1.77263  -0.000181412
4010  0.00713786    0.815901    -1.80726  -2.93969e-05
4020  0.000997146    0.814762    -1.37689  0.000736577
4030  -0.00759368    0.813169    -1.84092  0.000244192
4040  -0.00388669    0.813857   -0.963205  -0.00013501
4050  -0.00489348     0.81367    -1.87595  3.97798e-05
4060  -0.00468228    0.813709     -1.6347  0.000261711
4070  -0.0101277    0.812699    -1.60045  -0.000182119
4080  -0.0010399    0.814384    -2.34148  -0.000311922
4090  -0.00388926    0.813856    -1.99723  0.000216386
4100  -0.00536762    0.813582     -1.9111  3.23542e-05
4110  -0.00453634    0.813736    -1.13606  0.000387351
4120  -0.0131146    0.812146    -1.78999  -5.94687e-06
4130  -0.0044174    0.813758    -1.75616  -0.000569438
4140  -0.00172588    0.814257    -1.77347  -2.16016e-05
4150  -0.00398537    0.813838    -1.94559  0.000311857
4160  -0.00796303    0.813101    -1.34287  -0.000200522
4170  2.50733e-05    0.814582   -0.912646  -0.000247036
4180  -0.0030223    0.814017    -1.08518  0.000352119
4190  -0.00701731    0.813276    -1.34338  0.000353389
4200  -0.0100901    0.812706    -1.58406  3.35275e-05
4210  -0.00768786    0.813152    -1.96352  -0.000264122
4220  -0.00480765    0.813686    -1.82558  0.00030096
4230  -0.0137071    0.812036    -1.54967  0.000269458
4240  -0.0101968    0.812687    -2.16997  -5.18342e-05
4250  -0.0126704    0.812228    -1.87681  -0.000313256
4260  -0.00393169    0.813848    -1.49906  -0.000511303
4270  -0.00244433    0.814124    -1.41223  0.000144397
4280  -0.00681962    0.813313    -1.58448  8.08454e-05
4290  -0.00406123    0.813824    -1.53352  4.98412e-05
4300  -0.00781645    0.813128    -1.99798  -3.01683e-05
4310  -0.00345787    0.813936    -1.22377  -4.54695e-05
4320  -0.00690706    0.813297    -1.51607  0.000377466
4330  -0.0110072    0.812536    -1.34419  0.000266533
4340  -0.0122377    0.812308   -0.861835  0.000701185
4350  -0.0250309    0.809936    -1.61873  0.00032478
4360  -0.0187333    0.811104    -1.42956  -0.000437578
4370  -0.0162793    0.811559    -1.32676  -8.43814e-05
4380  -0.0170457    0.811417    -1.41285  -0.000279021
4390  -0.0106989    0.812593     -1.1031  0.000149701
4400  -0.0200397    0.810861    -2.15322  0.000189529
4410  -0.0144895    0.811891    -1.43048  -0.000312324
4420  -0.0137932     0.81202    -1.87795  -0.000191827
4430  -0.0106529    0.812602    -2.01607  0.000256342
4440  -0.0189201    0.811069    -1.08601  -0.000103267
4450  -0.00858761    0.812985    -1.00052  0.000135332
4460  -0.0216267    0.810567     -1.7057  0.000305943
4470  -0.0147065     0.81185     -1.6033  -0.00038113
4480  -0.0140041    0.811981   -0.656033  0.000192968
4490  -0.0185658    0.811135    -1.34457  0.000184916
4500  -0.0177024    0.811295     -1.2069  -0.000169052
4510  -0.0151848    0.811762    -1.65494  0.00031872
4520  -0.0240768    0.810113    -1.31067  0.000517764
4530  -0.0255401    0.809842    -2.29166  0.000138273
4540  -0.0268423      0.8096    -2.06794  9.72555e-05
4550  -0.0274852    0.809481    -1.67198  -1.07043e-05
4560  -0.0266282     0.80964    -1.34486  0.000156322
4570  -0.0306116    0.808901    -1.13843  -8.60851e-05
4580  -0.0249065    0.809959    -1.58604  -0.000462619
4590  -0.0213592    0.810617    -1.80975  -6.14939e-05
4600  -0.0236766    0.810187    -1.08692  0.000299401
4610  -0.0273473    0.809506    -1.56923  -0.000247438
4620  -0.0187278    0.811105    -1.96563  1.45779e-05
4630  -0.0276388    0.809452     -2.1892  0.000376775
4640  -0.0262633    0.809707    -1.39708  -0.000281978
4650  -0.0219993    0.810498    -1.91406  -0.000401736
4660  -0.0182286    0.811197    -1.15662  7.32591e-05
4670  -0.0234644    0.810226    -1.19066  0.000268702
4680  -0.0236027    0.810201    -1.62119  -0.000259316
4690  -0.0182781    0.811188    -1.48402  -0.000191216
4700  -0.0197783     0.81091    -1.41495  -4.06643e-06
4710  -0.0181968    0.811203    -1.89696  0.000116462
4720  -0.0221076    0.810478    -1.24268  -7.29054e-05
4730  -0.0167387    0.811474    -1.72549  -4.65142e-05
4740  -0.0211773    0.810651    -1.00173  0.000280676
4750  -0.0223522    0.810433    -1.05344  0.000299337
4760   -0.027164     0.80954    -1.75986  0.000239402
4770  -0.0271403    0.809545    -1.69078  0.000258255
4780  -0.0323291    0.808583    -1.43179  -0.000307084
4790  -0.0209986    0.810684    -1.46675  -0.000777562
4800  -0.0167779    0.811466   -0.967695  -0.000187053
4810  -0.0172575    0.811377    -1.62223  0.000188162
4820  -0.0205412    0.810768    -1.53592  0.000434106
4830  -0.0259396    0.809767    -1.08791  -0.0003026
4840  -0.0144892    0.811891   -0.830471  -0.000460513
4850  -0.0167294    0.811475    -1.53594  0.000268574
4860  -0.0198606    0.810895   -0.451324  0.000119227
4870  -0.0191139    0.811033    -1.08853  3.15185e-05
4880   -0.020491    0.810778    -1.41564  0.000271065
4890  -0.0245352    0.810028    -1.53597  0.000236284
4900  -0.0252167    0.809902    -1.22634  -0.000145538
4910  -0.0216244    0.810568    -1.64003  0.000247052
4920  -0.0301577    0.808985     -1.3296  -0.000191457
4930  -0.0177953    0.811278    -1.22658  -0.000315506
4940  -0.0238476    0.810155    -1.33003  0.000184289
4950  -0.0214811    0.810594    -1.65743  0.000329762
4960  -0.0304429    0.808932    -1.50204  4.13068e-05
4970  -0.0223072    0.810441    -1.81265  -0.000507831
4980  -0.0202862    0.810816    -1.60568  0.000105324
4990  -0.0244137     0.81005    -1.36483  0.000718479
