Time   Number   
ps   
0          63          50
10          60          52
20          58          54
30          61          54
40          61          50
50          62          60
60          56          53
70          59          54
80          60          57
90          62          45
100          56          55
110          62          55
120          58          48
130          58          52
140          55          47
150          63          52
160          56          51
170          61          52
180          56          59
190          59          50
200          56          49
210          57          55
220          59          46
230          59          53
240          56          45
250          60          50
260          59          57
270          61          48
280          59          47
290          59          53
300          55          47
310          62          49
320          60          55
330          58          45
340          63          49
350          64          51
360          56          52
370          61          50
380          59          50
390          62          49
400          64          45
410          61          58
420          59          53
430          62          48
440          56          53
450          60          49
460          63          53
470          59          59
480          63          53
490          61          50
500          54          58
510          59          57
520          53          59
530          65          57
540          64          43
550          59          55
560          60          51
570          65          51
580          62          50
590          67          48
600          62          49
610          59          47
620          65          49
630          54          53
640          61          48
650          57          55
660          54          50
670          62          52
680          64          47
690          61          49
700          56          54
710          61          49
720          63          53
730          58          55
740          62          44
750          58          53
760          62          56
770          61          46
780          59          53
790          58          60
800          58          44
810          60          48
820          60          51
830          62          56
840          62          50
850          60          54
860          60          51
870          64          51
880          66          47
890          58          53
900          63          52
910          67          50
920          60          48
930          60          49
940          64          48
950          59          56
960          66          49
970          63          50
980          61          52
990          64          55
1000          63          53
1010          61          53
1020          62          51
1030          58          53
1040          60          50
1050          63          51
1060          66          53
1070          59          55
1080          66          54
1090          65          53
1100          59          55
1110          59          54
1120          63          53
1130          60          50
1140          63          50
1150          62          54
1160          59          52
1170          60          53
1180          64          54
1190          61          57
1200          60          53
1210          62          50
1220          62          52
1230          62          59
1240          61          57
1250          63          57
1260          62          52
1270          59          55
1280          63          55
1290          60          60
1300          63          53
1310          65          57
1320          60          54
1330          65          50
1340          61          51
1350          64          53
1360          62          58
1370          65          54
1380          60          56
1390          63          53
1400          60          58
1410          60          50
1420          57          56
1430          59          48
1440          63          52
1450          60          53
1460          57          54
1470          59          59
1480          60          45
1490          61          51
1500          65          54
1510          60          53
1520          60          56
1530          59          48
1540          58          60
1550          53          52
1560          56          53
1570          58          58
1580          65          56
1590          65          55
1600          61          54
1610          64          51
1620          58          57
1630          62          50
1640          59          53
1650          57          58
1660          67          58
1670          61          46
1680          58          55
1690          59          57
1700          57          57
1710          60          53
1720          62          50
1730          60          51
1740          61          56
1750          64          49
1760          61          56
1770          58          55
1780          61          46
1790          56          49
1800          57          47
1810          58          52
1820          62          48
1830          53          53
1840          65          52
1850          60          51
1860          57          48
1870          59          51
1880          62          51
1890          54          54
1900          60          53
1910          63          51
1920          61          52
1930          63          53
1940          60          49
1950          61          51
1960          58          55
1970          57          55
1980          62          49
1990          61          44
2000          64          52
2010          59          58
2020          63          53
2030          62          50
2040          60          56
2050          59          54
2060          60          49
2070          58          55
2080          60          50
2090          59          53
2100          61          56
2110          58          44
2120          61          51
2130          61          52
2140          60          54
2150          62          48
2160          62          53
2170          59          54
2180          63          56
2190          62          41
2200          57          43
2210          57          46
2220          61          46
2230          63          48
2240          62          44
2250          59          51
2260          60          52
2270          61          46
2280          67          47
2290          64          46
2300          62          52
2310          61          51
2320          57          42
2330          61          46
2340          57          49
2350          61          51
2360          53          55
2370          58          55
2380          60          55
2390          59          51
2400          61          51
2410          61          51
2420          62          49
2430          54          51
2440          58          55
2450          57          50
2460          58          49
2470          65          54
2480          63          51
2490          67          50
2500          61          53
2510          60          56
2520          60          50
2530          62          49
2540          61          56
2550          66          51
2560          69          53
2570          67          53
2580          62          50
2590          62          61
2600          67          62
2610          66          52
2620          65          57
2630          64          56
2640          59          55
2650          61          49
2660          62          57
2670          63          45
2680          62          56
2690          56          45
2700          60          51
2710          63          53
2720          60          47
2730          63          45
2740          58          50
2750          59          55
2760          60          53
2770          58          50
2780          56          45
2790          60          48
2800          64          48
2810          62          53
2820          59          57
2830          60          57
2840          60          51
2850          60          42
2860          60          55
2870          65          53
2880          60          61
2890          59          53
2900          57          55
2910          64          55
2920          60          48
2930          56          54
2940          63          49
2950          62          56
2960          62          46
2970          58          54
2980          60          45
2990          59          55
3000          64          46
3010          58          56
3020          59          54
3030          59          47
3040          58          45
3050          63          44
3060          61          48
3070          60          43
3080          61          53
3090          59          47
3100          58          61
3110          57          62
3120          59          55
3130          59          57
3140          60          53
3150          61          47
3160          63          54
3170          59          53
3180          57          58
3190          61          48
3200          58          56
3210          62          50
3220          60          51
3230          62          48
3240          59          52
3250          60          52
3260          65          52
3270          58          50
3280          63          52
3290          65          51
3300          56          47
3310          53          57
3320          60          52
3330          58          50
3340          59          48
3350          67          45
3360          60          54
3370          62          43
3380          59          49
3390          62          42
3400          59          44
3410          59          42
3420          52          57
3430          60          54
3440          58          48
3450          61          53
3460          62          52
3470          62          53
3480          55          62
3490          54          55
3500          63          50
3510          61          55
3520          63          53
3530          59          56
3540          59          51
3550          62          56
3560          57          55
3570          60          53
3580          58          50
3590          65          52
3600          60          55
3610          56          56
3620          65          53
3630          64          50
3640          63          51
3650          65          45
3660          59          49
3670          61          54
3680          64          52
3690          56          55
3700          63          52
3710          60          52
3720          58          48
3730          56          57
3740          57          43
3750          57          48
3760          58          50
3770          56          49
3780          55          52
3790          59          50
3800          57          53
3810          61          49
3820          60          49
3830          58          46
3840          55          54
3850          63          45
3860          55          51
3870          57          54
3880          59          49
3890          56          49
3900          62          45
3910          60          56
3920          60          46
3930          60          49
3940          62          51
3950          59          48
3960          61          54
3970          59          48
3980          58          57
3990          61          46
4000          59          50
4010          58          56
4020          61          51
4030          61          46
4040          60          46
4050          65          46
4060          58          52
4070          62          55
4080          57          53
4090          59          41
4100          59          40
4110          59          57
4120          53          53
4130          63          56
4140          57          52
4150          59          57
4160          61          48
4170          57          52
4180          65          50
4190          55          42
4200          59          49
4210          53          52
4220          57          49
4230          62          45
4240          56          45
4250          63          48
4260          57          43
4270          60          43
4280          57          53
4290          64          51
4300          60          41
4310          53          53
4320          56          43
4330          60          46
4340          57          49
4350          61          47
4360          57          48
4370          61          47
4380          64          45
4390          65          50
4400          64          50
4410          60          51
4420          60          47
4430          60          54
4440          63          49
4450          55          50
4460          56          47
4470          57          54
4480          61          42
4490          56          51
4500          64          41
4510          63          51
4520          62          45
4530          61          47
4540          59          52
4550          58          47
4560          53          50
4570          55          52
4580          62          45
4590          61          44
4600          57          49
4610          61          44
4620          60          53
4630          61          48
4640          57          52
4650          57          48
4660          59          48
4670          61          49
4680          61          47
4690          55          55
4700          60          48
4710          58          54
4720          60          52
4730          58          47
4740          65          47
4750          61          42
4760          59          49
4770          54          54
4780          56          47
4790          61          52
4800          54          51
4810          60          48
4820          63          52
4830          62          45
4840          58          50
4850          63          50
4860          65          51
4870          57          54
4880          59          48
4890          62          48
4900          65          55
4910          60          48
4920          59          56
4930          63          53
4940          61          48
4950          58          51
4960          59          49
4970          58          53
4980          62          57
4990          58          52
5000          57          54
5010          59          51
5020          57          54
5030          56          51
5040          57          62
5050          59          56
5060          59          45
5070          57          52
5080          57          48
5090          59          51
5100          58          58
5110          61          47
5120          59          49
5130          59          51
5140          58          53
5150          57          43
5160          61          52
5170          57          59
5180          54          49
5190          63          44
5200          61          51
5210          62          49
5220          59          52
5230          59          53
5240          61          46
5250          61          49
5260          64          48
5270          67          50
5280          54          46
5290          65          58
5300          58          52
5310          56          53
5320          58          56
5330          62          50
5340          64          45
5350          60          51
5360          64          50
5370          65          51
5380          64          49
5390          64          47
5400          55          60
5410          62          49
5420          59          53
5430          59          46
5440          58          51
5450          61          47
5460          60          48
5470          62          51
5480          59          56
5490          59          57
5500          65          53
5510          61          49
5520          63          53
5530          66          52
5540          58          49
5550          61          52
5560          64          56
5570          64          55
5580          59          55
5590          60          56
5600          63          46
5610          60          58
5620          60          57
5630          64          53
5640          62          50
5650          60          44
5660          61          50
5670          60          45
5680          66          45
5690          64          54
5700          62          50
5710          63          56
5720          62          53
5730          61          54
5740          60          53
5750          63          55
5760          61          50
5770          62          54
5780          57          48
5790          59          58
5800          60          54
5810          59          51
5820          60          52
5830          64          50
5840          58          59
5850          63          47
5860          62          51
5870          61          55
5880          59          55
5890          63          57
5900          68          55
5910          59          52
5920          56          59
5930          58          54
5940          62          59
5950          59          48
5960          62          54
5970          62          48
5980          58          50
5990          63          50
6000          64          49
6010          60          54
6020          60          45
6030          65          48
6040          56          58
6050          62          50
6060          61          54
6070          62          52
6080          60          55
6090          63          49
6100          65          52
6110          62          51
6120          58          55
6130          57          55
6140          58          52
6150          60          48
6160          66          51
6170          60          49
6180          59          48
6190          59          48
6200          57          48
6210          61          53
6220          64          56
6230          58          58
6240          60          50
6250          65          56
6260          57          54
6270          57          50
6280          58          50
6290          60          54
6300          61          43
6310          61          48
6320          63          53
6330          62          48
6340          60          56
6350          58          45
6360          68          48
6370          58          56
6380          58          50
6390          66          48
6400          64          46
6410          56          53
6420          59          62
6430          59          59
6440          65          55
6450          59          53
6460          58          54
6470          61          51
6480          59          47
6490          59          52
6500          58          51
6510          63          47
6520          61          50
6530          59          50
6540          55          54
6550          62          46
6560          53          56
6570          61          50
6580          58          61
6590          61          52
6600          57          51
6610          56          51
6620          58          47
6630          64          50
6640          59          49
6650          61          48
6660          59          55
6670          59          53
6680          62          50
6690          58          55
6700          61          55
6710          63          50
6720          61          48
6730          63          49
6740          58          49
6750          63          50
6760          58          50
6770          55          48
6780          59          48
6790          61          55
6800          58          54
6810          62          46
6820          64          55
6830          64          53
6840          57          53
6850          63          58
6860          66          53
6870          60          49
6880          54          45
6890          66          52
6900          58          50
6910          60          52
6920          60          53
6930          54          55
6940          59          58
6950          53          49
6960          58          47
6970          60          52
6980          56          54
6990          56          51
7000          60          49
7010          57          53
7020          59          52
7030          55          55
7040          58          51
7050          58          57
7060          60          55
7070          57          50
7080          58          50
7090          61          50
7100          54          53
7110          57          54
7120          55          49
7130          60          55
7140          55          62
7150          58          54
7160          58          51
7170          55          47
7180          60          54
7190          59          51
7200          55          44
7210          59          53
7220          54          61
7230          61          51
7240          58          56
7250          62          50
7260          59          56
7270          59          49
7280          60          49
7290          55          53
7300          61          53
7310          58          54
7320          55          60
7330          57          56
7340          60          52
7350          56          48
7360          58          60
7370          59          52
7380          58          48
7390          58          52
7400          56          55
7410          58          59
7420          61          61
7430          56          51
7440          58          51
7450          59          45
7460          66          45
7470          61          56
7480          58          47
7490          63          45
7500          54          53
7510          56          49
7520          57          50
7530          58          41
7540          59          54
7550          61          46
7560          54          51
7570          59          51
7580          61          50
7590          62          49
7600          61          54
7610          56          59
7620          61          54
7630          60          50
7640          55          49
7650          57          53
7660          65          42
7670          57          57
7680          61          59
7690          55          51
7700          65          51
7710          57          50
7720          55          48
7730          60          43
7740          61          46
7750          57          51
7760          54          53
7770          63          48
7780          63          49
7790          63          47
7800          59          56
7810          58          52
7820          59          53
7830          63          45
7840          60          51
7850          55          47
7860          61          52
7870          52          51
7880          64          51
7890          61          51
7900          59          54
7910          63          59
7920          55          51
7930          59          50
7940          57          53
7950          63          50
7960          62          48
7970          56          54
7980          56          44
7990          61          56
8000          59          45
8010          63          51
8020          65          49
8030          54          50
8040          58          49
8050          59          51
8060          56          49
8070          60          53
8080          62          51
8090          53          52
8100          51          59
8110          58          48
8120          59          52
8130          58          49
8140          61          42
8150          59          47
8160          58          49
8170          52          58
8180          54          47
8190          57          45
8200          56          48
8210          59          53
8220          58          45
8230          58          51
8240          55          50
8250          59          50
8260          59          45
8270          61          47
8280          59          51
8290          53          48
8300          59          50
8310          59          49
8320          62          50
8330          58          54
8340          58          48
8350          59          49
8360          57          45
8370          53          57
8380          61          50
8390          60          48
8400          62          47
8410          52          45
8420          56          48
8430          52          50
8440          50          52
8450          54          48
8460          59          46
8470          60          43
8480          62          44
8490          55          51
8500          57          52
8510          54          48
8520          57          45
8530          57          47
8540          60          40
8550          58          41
8560          57          46
8570          55          50
8580          53          50
8590          57          53
8600          59          43
8610          59          47
8620          56          48
8630          55          48
8640          58          42
8650          60          46
8660          58          50
8670          58          50
8680          55          55
8690          57          57
8700          57          39
8710          61          51
8720          52          53
8730          58          51
8740          54          49
8750          59          55
8760          61          49
8770          60          46
8780          63          44
8790          58          44
8800          56          52
8810          56          41
8820          56          53
8830          60          48
8840          54          48
8850          56          45
8860          57          55
8870          60          46
8880          60          49
8890          60          46
8900          56          51
8910          56          50
8920          53          46
8930          55          56
8940          61          47
8950          57          49
8960          55          45
8970          52          47
8980          55          49
8990          58          50
9000          56          53
9010          56          51
9020          62          52
9030          52          46
9040          55          49
9050          61          47
9060          56          48
9070          59          46
9080          60          48
9090          60          48
9100          55          42
9110          55          58
9120          55          50
9130          57          51
9140          62          40
9150          59          49
9160          58          49
9170          55          55
9180          57          51
9190          55          58
9200          59          44
9210          55          53
9220          59          53
9230          60          50
9240          56          47
9250          57          48
9260          55          50
9270          59          47
9280          66          53
9290          62          54
9300          55          60
9310          59          56
9320          60          51
9330          55          55
9340          56          50
9350          59          57
9360          58          48
9370          57          46
9380          57          53
9390          56          46
9400          52          47
9410          57          56
9420          57          51
9430          55          48
9440          56          49
9450          58          50
9460          55          51
9470          52          44
9480          55          48
9490          56          60
9500          64          46
9510          61          53
9520          56          47
9530          54          54
9540          50          49
9550          59          42
9560          57          46
9570          53          51
9580          60          42
9590          56          46
9600          57          57
9610          54          53
9620          56          51
9630          51          57
9640          58          52
9650          55          58
9660          52          56
9670          50          49
9680          59          51
9690          58          45
9700          53          47
9710          56          52
9720          56          39
9730          59          48
9740          59          51
9750          59          52
9760          59          57
9770          57          49
9780          56          43
9790          55          50
9800          58          54
9810          60          56
9820          58          56
9830          58          56
9840          57          52
9850          58          52
9860          59          53
9870          65          50
9880          60          52
9890          53          45
9900          63          58
9910          57          54
9920          61          51
9930          59          55
9940          59          49
9950          59          43
9960          59          53
9970          54          62
9980          55          57
9990          59          54
10000          55          54
