Time   C(t)   
ps   
0           1           1  5.53313e-10   0.0341635
10    0.664734    0.794779     0.92575   0.0181268
20    0.637464    0.778087    0.618116   0.0020901
30    0.622932    0.769191    -0.17421  0.00169928
40    0.603478    0.757284    0.580883  0.00159249
50    0.591082    0.749696   -0.210874  0.00133182
60    0.576842    0.740979   -0.209802  0.00119383
70    0.567205     0.73508  -0.0408518  0.000879231
80    0.559257    0.730215   -0.523298  0.00073204
90    0.552564    0.726118    -1.14262  0.000739077
100    0.544476    0.721167    -2.79005  0.000845674
110    0.535651    0.715765    -0.97166  0.000830686
120    0.527862    0.710998    -2.82487  0.000688258
130    0.521886     0.70734    -1.79784  0.000564897
140    0.516564    0.704082    -1.45535  0.000813296
150     0.50562    0.697383   -0.871181  0.000761819
160    0.501328    0.694756    -1.31767  0.000490925
170    0.495801    0.691373    -2.17642  0.000411098
180    0.493106    0.689723    -4.44283  0.000462244
190    0.486557    0.685714    -1.25275  0.000588599
200    0.481334    0.682517   -0.978595  0.000561976
210    0.475317    0.678834     -2.0074  0.000451203
220     0.47231    0.676993    -2.55802  0.000460623
230    0.466105    0.673195    -2.55822  0.000598778
240    0.460334    0.669663    -1.32293  0.000445715
250     0.45719    0.667739  -0.0554569  0.000328739
260    0.453759    0.665639    -2.25189  0.000422169
270    0.448747     0.66257   -0.983552  0.000586256
280    0.442034    0.658461    0.285692  0.000381681
290    0.441113    0.657898     0.69595  0.000391229
300     0.43421    0.653672     1.38157  0.000371997
310    0.433673    0.653343     1.00312  0.000158234
320    0.431045    0.651735    0.933941  0.000308397
330    0.427505    0.649568   -0.816545  0.000481822
340    0.421409    0.645836    0.316193  0.000326712
350    0.420971    0.645568   -0.474524  0.000134651
360    0.418716    0.644188   -0.199668  0.000282592
370    0.415319    0.642109    -1.40148  0.00033146
380    0.412086     0.64013   -0.887729  0.000374904
390    0.407821    0.637519   -0.784537  0.000238851
400    0.407309    0.637206    -3.18779  0.000365025
410    0.400521     0.63305   -0.991558  0.000485425
420    0.397601    0.631263    -1.74749  0.000446646
430    0.391588    0.627582    -2.33041  0.00030714
440    0.391458    0.627503    -2.91468  0.000173415
450    0.388119    0.625459   -0.822106  0.000213802
460    0.387182    0.624886   -0.926873  0.000383799
470    0.380443    0.620761      -1.337  0.000349753
480    0.380187    0.620604    -2.57296  0.000120662
490     0.37803    0.619284   -0.482229  0.000328211
500    0.373623    0.616586    -1.81814  0.000346051
510    0.371109    0.615047    -1.85379  0.000277661
520     0.36807    0.613187    -1.40798  0.00033312
530    0.364447    0.610969   -0.687877  0.000388712
540    0.360295    0.608428     0.44389  0.000296839
550     0.35851    0.607335   -0.586661  0.000190349
560    0.356488    0.606098   -0.209249  0.000280713
570    0.352896    0.603898    0.167928  0.000188264
580    0.352723    0.603793    0.407527  0.000101615
590    0.350863    0.602654    0.784202  0.000346242
600    0.345798    0.599554    0.374012  0.000518766
610    0.340488    0.596304   -0.380879  0.000204813
620    0.341702    0.597047   -0.966351  2.45243e-05
630    0.339998    0.596003   -0.691963  0.000302151
640    0.335659    0.593348   -0.314518  0.000343631
650    0.333125    0.591797    0.269077  0.000291726
660    0.329824    0.589776   0.0974475  0.000221889
670    0.328687     0.58908    0.541589  0.000243072
680    0.324963      0.5868   0.0289433  0.00014061
690    0.325875    0.587359    0.336544  7.9307e-05
700    0.323377     0.58583   -0.521808  0.000264885
710    0.320577    0.584116   -0.520635  0.000168157
720    0.320014    0.583771  -0.0759915  0.000171575
730    0.317146    0.582015    -1.13919  0.000219114
740    0.315631    0.581088    -1.82554  0.000124976
750    0.314646    0.580485    -1.79159  0.000300017
760    0.309631    0.577416    -1.37788  7.5154e-05
770    0.313143    0.579565    -2.85515  4.5374e-06
780     0.30954     0.57736    -1.34607   0.0001408
790    0.310327    0.577842    -0.90009  6.99505e-05
800    0.308141    0.576504    0.128786  0.000251602
810    0.305295    0.574762   -0.213738  3.75181e-05
820    0.307391    0.576044     0.57316  5.27725e-05
830     0.30424    0.574115    0.984356  0.000467838
840    0.298034    0.570317    0.471744  0.000507544
850    0.294089    0.567902    0.162703  0.000203417
860    0.293966    0.567827   -0.524185  7.22274e-05
870    0.292644    0.567018     1.43084  -8.73953e-06
880    0.294141    0.567934     1.01697  2.44707e-05
890    0.292155    0.566718    0.228796  0.000237824
900    0.289384    0.565022  -0.0113058  0.000223237
910     0.28769    0.563985    0.262479  0.000199711
920     0.28539    0.562577     0.63989  0.000203124
930    0.283628    0.561499    0.879824  0.000146222
940    0.282466    0.560787    0.262344  5.88685e-05
950     0.28245    0.560778     1.22228  0.000177117
960    0.278923    0.558619    0.846041  0.000289471
970    0.276661    0.557234    0.159119  0.000223397
980    0.274455    0.555884    -1.17759  0.000117606
990    0.274309    0.555794   -0.116374  2.07365e-05
1000    0.274041     0.55563      -1.592  9.68441e-05
1010    0.272372    0.554609   -0.700204  0.00032551
1020     0.26753    0.551645    -1.04259  0.000222342
1030    0.267925    0.551887    -1.17984  -2.72736e-05
1040    0.268076    0.551979   -0.529043  0.000351748
1050     0.26089    0.547581    0.500838  0.000361291
1060     0.26085    0.547556   -0.836845  -4.80801e-05
1070    0.261852    0.548169   -0.495427  5.00366e-05
1080    0.259849    0.546943    -1.14749  0.000114465
1090    0.259562    0.546768   -0.735729  0.00026855
1100    0.254478    0.543656    -1.00861  0.000210379
1110    0.255355    0.544192    -1.45637  7.2515e-05
1120    0.253028    0.542768    -1.79963  0.000313164
1130    0.249092    0.540358    -1.31808  0.000165542
1140    0.249717    0.540741    -1.55936  4.86583e-05
1150    0.248118    0.539763    -1.42268  0.000187925
1160    0.245959    0.538441    -1.31889  0.000222414
1170     0.24367     0.53704    -1.14666  0.00014226
1180    0.243113    0.536699    -1.14833  7.74719e-05
1190    0.242121    0.536092   -0.874346  4.0289e-05
1200    0.242308    0.536206    -1.18282  9.64642e-05
1210    0.240191    0.534911   -0.840563  0.000199419
1220    0.238319    0.533765    -1.11458  0.000118764
1230    0.237816    0.533457    0.325623  0.00010349
1240    0.236249    0.532498    0.634196  0.000100555
1250    0.235805    0.532226      0.4627  0.000188499
1260    0.232479     0.53019    0.154328  0.000107264
1270     0.23366    0.530912  -0.0870787  3.56056e-05
1280    0.231767    0.529754    0.735612  0.000236563
1290    0.228929    0.528016   0.0159456  0.000243326
1300    0.226901    0.526775   -0.566645  0.000118004
1310    0.226568    0.526572    0.255946  -1.71527e-05
1320    0.227244    0.526985     1.07787  4.59708e-05
1330    0.225649    0.526009    0.528993  0.000289209
1340     0.22146    0.523445     0.32425  0.000163211
1350    0.222385    0.524011    0.734473  4.0371e-05
1360    0.220652     0.52295     2.10624  0.000268594
1370    0.217013    0.520723     1.45531  0.000237372
1380    0.215905    0.520044     1.28442   3.784e-05
1390    0.216256    0.520259     1.11205   3.803e-05
1400    0.215144    0.519579      1.2494  8.26374e-05
1410    0.214603    0.519248     1.90016  0.000146647
1420    0.212211    0.517784    0.391347  0.000226694
1430    0.210069    0.516473     1.28345  0.000115336
1440    0.209905    0.516372     1.86611  0.000144548
1450    0.207179    0.514703  -0.0205176  0.000317759
1460    0.203549    0.512482    0.837532  0.000119548
1470    0.204788    0.513239    0.767151  8.80174e-05
1480    0.201789    0.511404    0.459316  0.000242308
1490    0.199941    0.510273    0.664596  0.000223617
1500    0.197317    0.508666     1.45397  0.000220886
1510    0.195524    0.507569     1.62533  6.97881e-05
1520    0.195921    0.507812     1.96722  -7.85232e-05
1530    0.197094     0.50853     1.48662  0.000134831
1540    0.193224    0.506161    0.800533  0.000322647
1550    0.190641     0.50458   0.0811004  -1.69143e-05
1560    0.193563    0.506368    0.320129  4.50358e-05
1570    0.189741    0.504029     1.96726  0.00024946
1580    0.188573    0.503314   -0.228377  -4.5839e-05
1590    0.190657     0.50459   -0.813546  4.87074e-05
1600    0.187599    0.502718   -0.332105  0.000257226
1610    0.185513    0.501441   -0.640978  6.19985e-05
1620    0.186359    0.501959    -1.05325  8.1946e-05
1630    0.183874    0.500438   -0.538289  0.000209571
1640    0.182168    0.499394    0.318957  0.000180626
1650    0.180261    0.498227   -0.298153  0.000223714
1660    0.177694    0.496655   -0.778724  0.00019464
1670    0.176369    0.495844    0.284939  -0.000104111
1680    0.179776    0.497929   -0.334919  -0.000117232
1690    0.178713    0.497279   -0.095253  0.000192113
1700    0.175934    0.495577   -0.540634  0.000350913
1710    0.171695    0.492983    -1.50057  0.000361568
1720    0.168702    0.491151   -0.745209  0.000243406
1730    0.166827    0.490003    -0.74541  5.19402e-05
1740    0.167663    0.490515   -0.300398  3.23214e-05
1750     0.16618    0.489607    -1.05509  0.000188325
1760    0.163897     0.48821   -0.815054  0.000165465
1770    0.162871    0.487582   -0.369673  9.27135e-05
1780    0.162043    0.487075    -1.46725  1.9633e-05
1790    0.162478    0.487341   -0.987689  1.64226e-05
1800    0.161714    0.486874   -0.851149  0.000166716
1810    0.159144      0.4853    -1.09169  0.000340976
1820    0.154895    0.482699    -1.08998  0.000241247
1830    0.154319    0.482347   -0.405266  0.000138094
1840    0.152133    0.481009     -1.6052  0.000134964
1850     0.15162    0.480695    -1.29686  0.000226183
1860    0.147609     0.47824   -0.507352  0.000310648
1870    0.145407    0.476892    -1.22849  0.00019021
1880    0.143805    0.475911    -1.87982  7.60183e-05
1890    0.143887    0.475961    -1.43498  0.000177626
1900    0.140252    0.473736    -1.57118  0.000103454
1910    0.141817    0.474694    -1.05824  6.00047e-05
1920    0.139052    0.473002   -0.783649  0.000181938
1930    0.138179    0.472467    -1.29834  0.000107817
1940    0.136896    0.471682     -1.6417  0.000193034
1950    0.134318    0.470104  -0.0641486  0.000254714
1960    0.131802    0.468564    -1.33209  -6.83799e-05
1970    0.135686    0.470941   -0.648448  -5.45129e-05
1980    0.132892    0.469231    -0.88845  0.000231896
1990    0.131048    0.468102   -0.476718  0.000181227
2000    0.129267    0.467012    -1.12882  0.000167994
2010    0.127688    0.466046    -2.02028  0.00017186
2020     0.12583    0.464908    -1.23158  0.000100157
2030    0.125685    0.464819    -1.98623  0.000134898
2040    0.123132    0.463257    -1.36795  0.00017639
2050    0.122157     0.46266   -0.614196   0.0001149
2060    0.120834     0.46185   -0.717054  8.06682e-05
2070    0.120543    0.461672   -0.443604  0.000129295
2080    0.118248    0.460268   -0.957423  0.000202148
2090    0.116501    0.459198    0.277905  0.000123048
2100    0.115787    0.458761    -1.02609  0.000119942
2110    0.114102    0.457729   -0.923371  0.000196574
2120    0.111856    0.456355  -0.0308018  5.79722e-05
2130    0.112942     0.45702    -0.95816  9.31442e-05
2140    0.109993    0.455214    -1.33473  0.00030225
2150    0.106897    0.453319   -0.476382  7.26663e-05
2160     0.10854    0.454325    -1.95335  -9.10796e-05
2170    0.108719    0.454434    -1.71432  0.000223495
2180     0.10407    0.451589    -1.81611  0.000402446
2190     0.10067    0.449508    -2.32959  8.78494e-05
2200    0.102313    0.450513    -2.22787  -0.000182069
2210    0.104311    0.451736     -1.8515  0.000239516
2220   0.0975225    0.447581   -0.340179  0.000317034
2230   0.0979706    0.447855    -1.26807  7.85548e-05
2240   0.0959514    0.446619    -1.54206  0.000248085
2250   0.0930089    0.444818    -1.78182  -2.34656e-06
2260   0.0959983    0.446648    -1.20047  1.92534e-05
2270   0.0926239    0.444582    -1.85197  0.000298912
2280   0.0900201    0.442989    -3.01846  0.000182629
2290   0.0889713    0.442347    -1.26924  0.000136987
2300   0.0872803    0.441312    -1.68131  0.000204931
2310   0.0848727    0.439838   -0.891296  0.000119912
2320   0.0848821    0.439844    -2.84787   4.544e-05
2330   0.0839639    0.439281    -2.43634  0.000177666
2340   0.0813288    0.437669    -2.43573  0.000149415
2350   0.0809756    0.437452    -2.57375  0.000225192
2360   0.0768249    0.434912    -1.47489  6.05524e-05
2370   0.0797645    0.436711    -3.36359  -3.9383e-05
2380   0.0776126    0.435394    -1.95603  0.000104002
2390   0.0776845    0.435438    -2.40245  0.000154836
2400   0.0745159    0.433498   -0.755427  0.000216319
2410   0.0733581     0.43279    -3.08874  0.000130395
2420    0.071908    0.431902    -2.33358  2.22772e-05
2430   0.0729126    0.432517    -2.23156  4.78186e-05
2440   0.0709516    0.431317   -0.961912  0.000268828
2450    0.067536    0.429226    -2.26444  2.26762e-05
2460   0.0704981    0.431039    -1.44225  -1.68093e-05
2470   0.0678722    0.429432    -2.40245  0.000212003
2480    0.066258    0.428444    -1.54507  -2.05413e-05
2490    0.068283    0.429683    -1.27142  1.97791e-05
2500   0.0658625    0.428201    -1.40847  0.000242367
2510   0.0634357    0.426716    -2.12874  0.000122306
2520   0.0634163    0.426704    -2.57539  3.4887e-05
2530   0.0627379    0.426289    -2.74735  0.00028435
2540   0.0577294    0.423223    -2.26538  0.000259125
2550   0.0575554    0.423117    -1.61518  -1.20137e-05
2560   0.0579696     0.42337    -2.12971  -4.51649e-05
2570   0.0584587    0.423669    -2.74863  0.000142808
2580   0.0551135    0.421622    -1.58113  0.000172483
2590   0.0550091    0.421558    -4.05155  6.96013e-05
2600   0.0537214     0.42077    -2.57623  3.2684e-05
2610   0.0543554    0.421158    -2.30281  1.06772e-05
2620   0.0535079    0.420639    -2.57753  2.54611e-05
2630   0.0538462    0.420846     -1.2059  0.000107395
2640     0.05136    0.419324    -1.03367  0.000256415
2650   0.0487179    0.417707   -0.862103  0.00011916
2660   0.0489768    0.417865    -1.06829  3.75574e-05
2670   0.0479667    0.417247    -2.16627  7.49666e-05
2680   0.0474775    0.416948     -1.2064  0.000198721
2690   0.0439923    0.414814   -0.279144  0.000109099
2700   0.0452955    0.415612    -2.09817  -6.66922e-05
2710   0.0453262    0.415631    -1.72102  9.09045e-05
2720   0.0434774    0.414499    -3.02455  0.000143728
2730   0.0424516    0.413871     -2.6822  8.38667e-05
2740   0.0418001    0.413472    -3.12815  2.75133e-05
2750   0.0419013    0.413534    -2.33941  -4.03838e-05
2760   0.0426077    0.413967    -3.71248  7.68702e-05
2770   0.0403639    0.412593    -3.81423  3.13962e-05
2780   0.0419798    0.413582    -3.16398  4.69275e-05
2790   0.0394254    0.412019    -2.51107  2.3981e-05
2800   0.0415002    0.413289    -1.92945  -1.74982e-05
2810   0.0397753    0.412233    -2.03217  0.000104128
2820   0.0394176    0.412014    -1.10599   0.0001007
2830   0.0377613       0.411    -2.06666  9.32537e-05
2840   0.0375526    0.410872   -0.625586  -4.41644e-05
2850   0.0386446    0.411541    -1.03802  2.09624e-05
2860   0.0371333    0.410616    0.265576  0.000216572
2870   0.0343132     0.40889     -0.3514  0.000132523
2880   0.0344829    0.408993    0.265711  -5.1621e-05
2890   0.0353456    0.409522    -0.42158  0.000171816
2900   0.0310465     0.40689    -1.38108  0.000283865
2910   0.0296683    0.406046    -2.06663  5.68426e-05
2920   0.0299097    0.406194    -2.17006  0.000153875
2930   0.0265908    0.404163     -2.7866  8.04246e-05
2940   0.0283012     0.40521    -1.79311  -1.21596e-05
2950    0.026834    0.404312   -0.318387  1.08987e-05
2960   0.0280832    0.405076    -1.79325  1.50274e-05
2970   0.0265334    0.404128    -3.13146  0.000135719
2980   0.0253688    0.403415    -2.44562  0.000132223
2990    0.023889    0.402509    -3.26847  0.000163836
3000   0.0220921    0.401409    -3.23338  7.03437e-05
3010   0.0224821    0.401648    -2.23936  4.32516e-05
3020   0.0212271    0.400879    -3.26894  -0.000105929
3030   0.0246007    0.402944    -2.89321  8.28248e-05
3040   0.0195706    0.399865    -3.50854  0.000220258
3050   0.0201955    0.400248    -2.85731  -8.22844e-05
3060   0.0212163    0.400873    -2.24057  0.000134658
3070   0.0175024      0.3986    -3.40585  0.000154451
3080   0.0181272    0.398982    -3.44041  2.4558e-05
3090   0.0170112    0.398299     -2.4804  -7.20574e-06
3100   0.0182714     0.39907    -2.03532  -0.000114299
3110   0.0192972    0.399698    -2.17253  4.66183e-06
3120   0.0181781    0.399013    -1.86383  0.000191727
3130   0.0154627    0.397351    -1.14229  3.26231e-05
3140   0.0175257    0.398614   -0.355085  -8.27786e-05
3150   0.0171182    0.398364     -2.3443  3.28129e-05
3160   0.0168694    0.398212    -1.52107  -3.14517e-06
3170   0.0171812    0.398403    -1.07552  -1.1147e-05
3180   0.0170923    0.398349    -1.17908  0.000137469
3190   0.0144318     0.39672    -1.65781  0.000161837
3200   0.0138556    0.396367   -0.868937  -9.54397e-05
3210   0.0163406    0.397888   -0.286782  -0.000160085
3220   0.0170573    0.398327   0.0218919  -1.51832e-05
3230   0.0166442    0.398074    -1.00705  0.000126378
3240   0.0145297     0.39678   -0.629505  0.000130668
3250   0.0140309    0.396475    0.331335  1.25375e-06
3260   0.0145047    0.396765   -0.183623  0.000102984
3270   0.0119712    0.395214     0.29648  0.000127498
3280   0.0119547    0.395204   0.0219921  -7.58357e-05
3290   0.0134879    0.396142   0.0899607  -2.2854e-05
3300   0.0124118    0.395483   -0.767319  0.00015276
3310   0.0104327    0.394272    0.330799  1.38711e-05
3320   0.0121343    0.395314     1.46243  1.41997e-05
3330   0.0101487    0.394098     1.35964  5.73783e-06
3340   0.0120196    0.395243     1.25618  1.83941e-05
3350  0.00978084    0.393873     1.29147  7.99668e-05
3360   0.0104203    0.394264     1.01625  -0.000130069
3370   0.0123822    0.395465     1.01541  -4.76992e-05
3380   0.0113742    0.394848     1.28933  2.23086e-05
3390    0.011936    0.395192    0.671815  0.000121996
3400  0.00893431    0.393355    0.398331  0.000117955
3410  0.00957694    0.393748     1.25518  2.71019e-05
3420  0.00839227    0.393023     1.70213  -4.79329e-05
3430   0.0105356    0.394335     1.46029  -3.53057e-05
3440  0.00909839    0.393455      2.6618  4.36776e-05
3450  0.00966204      0.3938     2.14624  0.000144383
3460  0.00621073    0.391688    0.878166  9.0033e-05
3470  0.00786138    0.392698     1.66637  -8.97457e-05
3480  0.00800564    0.392786      1.2539  0.000124234
3490  0.00537671    0.391177     1.15155  0.000137014
3500  0.00526536    0.391109    0.293565  2.37887e-05
3510  0.00490094    0.390886     1.70025  -8.59311e-05
3520  0.00698398    0.392161    0.944359  4.51017e-05
3530   0.0039989    0.390334     1.80351  0.000188854
3540   0.0032069    0.389849     1.52852  -0.000124316
3550  0.00648523    0.391856     2.28248  -6.49005e-05
3560  0.00450491    0.390644     2.24849  2.56584e-06
3570  0.00643391    0.391824     3.13909  -0.000129246
3580  0.00708983    0.392226     3.17347  8.79784e-05
3590  0.00467434    0.390747     1.86987  0.000160681
3600  0.00387621    0.390259      2.8649  1.5709e-05
3610  0.00436016    0.390555     3.13959  5.01822e-05
3620  0.00287256    0.389644     3.41347  5.87805e-05
3630  0.00318455    0.389835     3.31095  -0.000151713
3640  0.00590682    0.391502     3.30897  7.43702e-06
3650  0.00303581    0.389744      3.4131  0.000270279
3660  0.000501238    0.388193     3.89401  -5.49195e-06
3670  0.00314565    0.389812     4.75025  -7.00224e-05
3680  0.00190169     0.38905     3.58437  5.9523e-05
3690  0.00195519    0.389083     2.38276  9.89039e-05
3700  -7.63908e-05    0.387839     4.33869  9.47119e-05
3710  6.09568e-05    0.387923     3.85822  -1.37518e-05
3720  0.000198645    0.388008      2.7604  -9.23432e-05
3730  0.00190782    0.389054     2.51973  -0.000105632
3740  0.00231129    0.389301     2.27926  7.78027e-05
3750  0.000351767    0.388101     2.21186  7.34792e-05
3760  0.00084171    0.388401     2.34783  4.75702e-05
3770  -0.000599636    0.387519     1.79976  3.87553e-05
3780  6.66046e-05    0.387927     3.03429  0.000131571
3790  -0.00323105    0.385908      2.4521  0.000193482
3800  -0.00380303    0.385558     1.73112  -5.76461e-05
3810  -0.00207813    0.386614      3.0684  -9.30614e-05
3820  -0.00194181    0.386697     1.66178  0.000114959
3830  -0.0043773    0.385207     2.21129  8.50572e-06
3840  -0.00211192    0.386593     2.34756  -1.33452e-05
3850  -0.0041104     0.38537     2.21126  0.000111044
3860  -0.0043328    0.385234     2.48514  -4.50604e-06
3870  -0.00402028    0.385425     1.66195  -3.12988e-05
3880  -0.00370683    0.385617     1.90218  3.57853e-05
3890  -0.00473598    0.384987     2.96558  7.61473e-05
3900  -0.00522977    0.384685     1.69637  1.35327e-05
3910  -0.00500664    0.384821     1.18215  -0.000125869
3920  -0.00271238    0.386226      2.8274  -0.000103546
3930  -0.00293571    0.386089     2.31304  4.26503e-06
3940  -0.00279768    0.386174     2.07264  -2.45881e-07
3950  -0.0029308    0.386092     2.79284  -5.46201e-05
3960  -0.00170528    0.386842     2.51849  4.51382e-05
3970  -0.00383356    0.385539       1.112  0.000167733
3980  -0.00505995    0.384789     2.58696  -1.82943e-05
3990  -0.00346767    0.385763     1.79805  5.48465e-05
4000  -0.00615688    0.384117     2.41664  0.000159737
4010  -0.0066624    0.383808     2.00464  -0.000178138
4020  -0.00259412    0.386298     2.14061  -0.000233352
4030  -0.00199536    0.386665     1.21429  4.56129e-05
4040  -0.00350638     0.38574     1.96854  3.63964e-05
4050  -0.00272329    0.386219    0.630093  4.13162e-05
4060  -0.0043327    0.385234    0.150492  0.000193516
4070  -0.00659361     0.38385     0.21903  0.000212621
4080  -0.00858512    0.382631   -0.295223  0.000268933
4090  -0.0119723    0.380558     0.11661  -5.95595e-05
4100  -0.00739393     0.38336    0.938195  -0.000170608
4110  -0.0085601    0.382646    -1.05112  0.000247153
4120   -0.012337    0.380334    0.184242  0.00024779
4130  -0.0135159    0.379613   -0.261741  4.33855e-05
4140  -0.0132047    0.379803   -0.261607  9.97851e-05
4150  -0.0155116    0.378391    0.424913  0.000142087
4160  -0.0160464    0.378064    -1.04988  8.17123e-05
4170  -0.0171459    0.377391   -0.226987  9.60361e-05
4180  -0.0179672    0.376888    -1.59939  -2.60551e-05
4190  -0.0166248     0.37771    -1.22248  7.78392e-05
4200  -0.0195239    0.375935    -1.08467  0.000247876
4210  -0.0215823    0.374675   -0.947557  3.1031e-05
4220  -0.0201446    0.375555   -0.707423  -7.28804e-05
4230  -0.0201247    0.375567    -2.49186  0.000121517
4240  -0.0225749    0.374068    -2.21724  1.22571e-05
4250  -0.0203698    0.375417    -2.73243  -0.000144609
4260  -0.0196827    0.375838    -2.56127  2.66783e-05
4270  -0.0209034    0.375091    -2.69881  0.000170122
4280  -0.0230851    0.373755    -2.42372  -4.50165e-05
4290   -0.020003    0.375642    -3.17949  -9.27255e-05
4300  -0.0212306     0.37489    -3.24762  0.000103731
4310  -0.0220777    0.374372     -1.7727  -2.59358e-05
4320  -0.0207119    0.375208    -2.11612  -7.88958e-05
4330  -0.0204997    0.375338     -2.4934  -0.000132472
4340  -0.0180625     0.37683    -2.73457  0.000157826
4350  -0.0236563    0.373406    -2.11619  0.000157689
4360  -0.0212163    0.374899    -1.29323  -8.40468e-05
4370  -0.0219753    0.374435    -1.87639  -1.86227e-06
4380   -0.021179    0.374922    -1.32832  -3.58705e-05
4390  -0.0212579    0.374874    -1.19111  5.67575e-05
4400  -0.0223142    0.374227     -1.2942  0.000115601
4410  -0.0235699    0.373459    -1.53383  -1.63931e-05
4420  -0.0219863    0.374428   -0.471241  0.000121363
4430  -0.0259972    0.371973   -0.402133  0.000204943
4440  -0.0260852    0.371919  -0.0593434  -5.03307e-05
4450  -0.0249906    0.372589    -0.23104  -1.58235e-05
4460  -0.0257687    0.372113     -1.2943  9.28082e-05
4470  -0.0268467    0.371453   -0.574232  -3.0812e-05
4480  -0.0251525     0.37249    -1.08926  -5.84256e-06
4490  -0.0267299    0.371524   -0.986668  0.000133126
4500   -0.027815     0.37086   -0.643374  7.88349e-05
4510  -0.0283066    0.370559    0.179219  3.92543e-05
4520  -0.0286001     0.37038   -0.883709  0.000174455
4530  -0.0317957    0.368423   -0.711477  0.00012973
4540  -0.0311947    0.368791   -0.849659  2.01005e-05
4550  -0.0321977    0.368177    -1.43255  9.54738e-05
4560  -0.0331042    0.367623   -0.471811  0.00010593
4570  -0.0343163    0.366881   -0.677994  0.000126476
4580  -0.0356337    0.366074    -1.56973  0.000187625
4590  -0.0380688    0.364584   -0.746902  0.000208485
4600  -0.0398034    0.363522   -0.506733  5.19497e-05
4610  -0.0391078    0.363948   -0.816108  -7.98646e-05
4620  -0.0382061      0.3645     0.79539  3.19486e-05
4630  -0.0397468    0.363557    0.830481  0.000118625
4640  -0.0405786    0.363047   -0.884782  6.28751e-05
4650  -0.0410043    0.362787    -1.26186  5.28917e-05
4660  -0.0416364      0.3624    0.452834  1.74791e-06
4670  -0.0410392    0.362765    0.109372  0.000166472
4680  -0.0449659    0.360362   -0.438094  -0.000101297
4690  -0.0390133    0.364005   -0.303597  -0.000312425
4700  -0.0387174    0.364187   -0.303263  0.000197939
4710  -0.0429721    0.361582   -0.130494  0.000208629
4720  -0.0428899    0.361633   -0.577147  -0.000153626
4730  -0.0398995    0.363463    -0.95553  -5.50924e-05
4740  -0.0417881    0.362307   -0.577448  0.000178771
4750   -0.043475    0.361274   -0.474256  -4.50727e-05
4760  -0.0408866    0.362859   -0.303532  2.83996e-05
4770  -0.0440429    0.360927     -2.1551  0.000169494
4780  -0.0442765    0.360784    -1.46925  -0.000233949
4790   -0.039364    0.363791   -0.887495  -3.96706e-05
4800  -0.0434831    0.361269     -1.2642  0.000159644
4810  -0.0425569    0.361836   -0.646825  -7.69628e-05
4820  -0.0419438    0.362212    -1.02397  3.91448e-05
4830  -0.0433397    0.361357   -0.783734  8.15369e-05
4840  -0.0435746    0.361213    -1.05846  1.81995e-05
4850  -0.0437037    0.361134   -0.647627  1.2951e-05
4860  -0.0438336    0.361055   -0.681244  2.36791e-05
4870  -0.0441773    0.360844   -0.235729  1.30555e-05
4880  -0.0440947    0.360895   -0.613677  2.38642e-05
4890  -0.0446546    0.360552    0.689887  0.000104374
4900  -0.0461822    0.359617   -0.613443  0.000179942
4910  -0.0482534    0.358349   -0.406456  4.05518e-05
4920  -0.0469932    0.359121    0.313145  3.26447e-06
4930  -0.0483187    0.358309     1.20511  -0.000126768
4940  -0.0444579    0.360673    -0.23717  -0.000159254
4950  -0.0451336    0.360259    0.414128  0.000138261
4960  -0.0472231     0.35898   -0.373676  -2.45361e-05
4970  -0.0446429    0.360559   -0.203387  5.7607e-05
4980  -0.0483752    0.358275    0.208981  0.000150052
4990   -0.047644    0.358723    0.208412  0.000242498
