Time   Number   
ps   
0          21          23
10          20          21
20          20          26
30          21          30
40          27          23
50          32          23
60          28          27
70          29          26
80          29          27
90          26          31
100          27          30
110          32          28
120          29          34
130          31          35
140          28          38
150          30          35
160          33          34
170          35          33
180          33          28
190          31          34
200          31          31
210          33          35
220          32          27
230          29          36
240          25          31
250          31          32
260          26          33
270          28          32
280          34          34
290          32          28
300          31          29
310          28          31
320          26          31
330          28          34
340          25          40
350          28          36
360          31          30
370          30          28
380          29          31
390          18          35
400          23          35
410          29          33
420          31          33
430          32          29
440          26          36
450          24          44
460          25          39
470          27          31
480          30          34
490          24          31
500          32          30
510          28          26
520          28          40
530          25          40
540          30          34
550          30          31
560          30          30
570          31          35
580          32          27
590          28          29
600          32          33
610          33          25
620          31          29
630          28          25
640          31          30
650          26          34
660          27          34
670          29          29
680          30          26
690          26          29
700          25          28
710          29          30
720          30          27
730          30          27
740          27          34
750          28          39
760          32          31
770          28          31
780          30          33
790          29          28
800          31          28
810          26          36
820          35          28
830          29          31
840          31          34
850          30          32
860          27          32
870          30          31
880          32          31
890          26          33
900          26          32
910          34          32
920          35          30
930          31          28
940          33          28
950          35          30
960          33          29
970          31          30
980          31          30
990          32          33
1000          35          28
1010          32          29
1020          30          32
1030          33          25
1040          30          36
1050          26          30
1060          37          27
1070          31          26
1080          36          27
1090          38          24
1100          33          29
1110          29          29
1120          33          24
1130          29          27
1140          38          24
1150          34          24
1160          32          31
1170          34          31
1180          29          28
1190          32          31
1200          31          25
1210          32          23
1220          38          18
1230          29          28
1240          31          31
1250          33          23
1260          30          24
1270          35          24
1280          38          21
1290          31          32
1300          31          29
1310          29          29
1320          32          32
1330          34          28
1340          29          31
1350          29          31
1360          30          30
1370          32          26
1380          32          29
1390          27          32
1400          32          30
1410          26          34
1420          29          32
1430          34          22
1440          35          29
1450          34          28
1460          33          28
1470          30          25
1480          31          31
1490          31          29
1500          34          23
1510          35          22
1520          29          27
1530          31          32
1540          31          25
1550          32          28
1560          25          29
1570          28          27
1580          29          29
1590          35          21
1600          32          21
1610          34          26
1620          29          32
1630          29          29
1640          33          27
1650          34          26
1660          32          23
1670          27          32
1680          26          25
1690          34          22
1700          27          34
1710          28          30
1720          31          32
1730          31          25
1740          29          32
1750          33          29
1760          35          28
1770          30          30
1780          25          38
1790          31          33
1800          31          36
1810          30          29
1820          33          28
1830          28          27
1840          29          27
1850          24          33
1860          29          28
1870          32          31
1880          33          30
1890          33          29
1900          38          27
1910          29          33
1920          30          26
1930          29          31
1940          30          28
1950          28          32
1960          35          31
1970          30          35
1980          36          32
1990          36          27
2000          37          23
2010          32          27
2020          30          29
2030          32          30
2040          30          28
2050          32          39
2060          31          39
2070          34          26
2080          39          23
2090          31          35
2100          33          36
2110          32          30
2120          31          32
2130          31          35
2140          31          34
2150          34          26
2160          35          32
2170          33          34
2180          35          25
2190          34          34
2200          31          32
2210          38          28
2220          35          30
2230          33          28
2240          35          28
2250          30          32
2260          35          31
2270          34          35
2280          28          27
2290          33          26
2300          38          30
2310          30          24
2320          34          32
2330          28          30
2340          34          29
2350          37          25
2360          33          27
2370          30          29
2380          29          29
2390          27          26
2400          31          25
2410          31          26
2420          34          26
2430          33          33
2440          34          33
2450          28          32
2460          33          35
2470          33          28
2480          34          34
2490          36          34
2500          30          33
2510          37          33
2520          32          35
2530          35          28
2540          32          33
2550          28          38
2560          30          26
2570          31          31
2580          29          35
2590          38          30
2600          33          31
2610          31          36
2620          33          31
2630          28          39
2640          32          29
2650          32          34
2660          29          27
2670          32          31
2680          30          35
2690          33          23
2700          35          26
2710          32          31
2720          32          26
2730          29          28
2740          32          24
2750          32          26
2760          29          32
2770          36          30
2780          29          27
2790          28          27
2800          27          26
2810          30          26
2820          29          27
2830          31          29
2840          29          31
2850          32          29
2860          35          21
2870          34          33
2880          30          32
2890          30          36
2900          32          31
2910          30          32
2920          32          31
2930          34          26
2940          30          36
2950          33          27
2960          32          30
2970          30          29
2980          31          33
2990          35          27
3000          37          29
3010          35          26
3020          31          30
3030          34          28
3040          35          30
3050          31          36
3060          34          31
3070          33          31
3080          29          36
3090          34          27
3100          30          34
3110          33          28
3120          34          28
3130          32          33
3140          32          32
3150          31          30
3160          34          30
3170          32          30
3180          32          32
3190          32          30
3200          30          29
3210          33          30
3220          32          30
3230          30          32
3240          28          35
3250          26          27
3260          32          26
3270          34          33
3280          31          36
3290          29          36
3300          29          35
3310          31          35
3320          30          36
3330          30          31
3340          33          28
3350          30          35
3360          29          40
3370          30          36
3380          34          32
3390          35          28
3400          28          36
3410          29          30
3420          31          36
3430          19          40
3440          24          36
3450          27          40
3460          27          33
3470          30          30
3480          26          37
3490          31          32
3500          33          33
3510          34          28
3520          28          36
3530          30          30
3540          29          32
3550          27          37
3560          32          30
3570          28          32
3580          30          33
3590          28          38
3600          36          32
3610          31          32
3620          27          27
3630          28          25
3640          25          35
3650          27          31
3660          29          29
3670          31          35
3680          36          30
3690          30          30
3700          30          31
3710          33          32
3720          29          34
3730          31          35
3740          31          30
3750          35          30
3760          34          32
3770          28          27
3780          34          28
3790          34          32
3800          24          37
3810          28          34
3820          32          33
3830          28          28
3840          32          34
3850          31          36
3860          30          40
3870          29          38
3880          34          36
3890          31          29
3900          33          35
3910          33          35
3920          32          38
3930          35          32
3940          29          36
3950          28          38
3960          31          36
3970          26          34
3980          29          34
3990          29          31
4000          31          36
4010          26          38
4020          31          33
4030          29          29
4040          28          32
4050          27          34
4060          29          25
4070          38          27
4080          31          26
4090          28          34
4100          33          37
4110          28          37
4120          29          32
4130          30          32
4140          29          28
4150          29          25
4160          30          30
4170          27          30
4180          22          30
4190          23          31
4200          31          29
4210          34          25
4220          28          28
4230          24          31
4240          28          33
4250          25          30
4260          25          36
4270          29          32
4280          30          28
4290          35          22
4300          33          25
4310          31          34
4320          28          32
4330          29          25
4340          25          32
4350          26          35
4360          25          30
4370          22          37
4380          26          32
4390          29          26
4400          26          30
4410          28          32
4420          27          30
4430          33          24
4440          24          31
4450          33          28
4460          29          29
4470          26          34
4480          26          26
4490          26          28
4500          29          25
4510          22          30
4520          25          31
4530          24          31
4540          25          34
4550          31          26
4560          29          30
4570          28          30
4580          25          29
4590          25          26
4600          33          28
4610          29          24
4620          32          30
4630          28          32
4640          26          35
4650          27          31
4660          26          34
4670          28          29
4680          28          35
4690          31          31
4700          23          32
4710          31          31
4720          31          31
4730          29          30
4740          27          36
4750          27          37
4760          25          34
4770          34          30
4780          23          31
4790          34          25
4800          29          34
4810          26          32
4820          26          33
4830          25          32
4840          28          27
4850          26          26
4860          32          22
4870          31          21
4880          30          23
4890          28          29
4900          31          22
4910          22          33
4920          29          32
4930          29          28
4940          29          26
4950          31          28
4960          27          35
4970          29          27
4980          28          32
4990          24          32
5000          26          33
5010          27          31
5020          23          39
5030          31          26
5040          24          34
5050          23          29
5060          27          34
5070          30          29
5080          28          34
5090          30          33
5100          26          33
5110          30          36
5120          33          31
5130          31          28
5140          27          36
5150          32          28
5160          26          42
5170          33          35
5180          32          33
5190          26          34
5200          26          34
5210          29          33
5220          28          34
5230          29          28
5240          31          33
5250          25          31
5260          26          30
5270          26          25
5280          25          31
5290          24          38
5300          25          26
5310          31          24
5320          29          27
5330          27          36
5340          30          25
5350          22          30
5360          22          35
5370          28          28
5380          29          25
5390          26          36
5400          27          31
5410          31          22
5420          28          31
5430          29          34
5440          29          29
5450          31          33
5460          29          27
5470          23          32
5480          29          25
5490          30          21
5500          29          23
5510          30          19
5520          30          23
5530          29          31
5540          27          26
5550          28          21
5560          29          31
5570          29          24
5580          26          22
5590          24          29
5600          24          36
5610          26          32
5620          25          32
5630          24          32
5640          29          24
5650          24          29
5660          24          33
5670          29          25
5680          26          23
5690          26          25
5700          26          29
5710          25          30
5720          27          24
5730          25          29
5740          29          23
5750          22          30
5760          27          26
5770          26          30
5780          30          22
5790          29          24
5800          26          28
5810          27          26
5820          29          28
5830          26          29
5840          26          29
5850          28          30
5860          26          26
5870          32          22
5880          29          31
5890          24          26
5900          26          23
5910          28          27
5920          30          23
5930          27          31
5940          27          28
5950          26          32
5960          31          28
5970          29          28
5980          25          27
5990          30          33
6000          27          29
6010          28          28
6020          27          28
6030          27          30
6040          26          30
6050          21          30
6060          26          32
6070          24          26
6080          22          31
6090          29          21
6100          25          29
6110          29          25
6120          27          24
6130          23          26
6140          27          26
6150          26          31
6160          24          28
6170          22          31
6180          24          28
6190          23          35
6200          27          30
6210          21          37
6220          28          24
6230          24          30
6240          26          31
6250          24          29
6260          27          28
6270          27          33
6280          23          34
6290          28          26
6300          23          27
6310          26          26
6320          22          33
6330          24          25
6340          29          22
6350          24          29
6360          26          25
6370          26          20
6380          29          26
6390          30          21
6400          22          28
6410          26          21
6420          30          24
6430          31          22
6440          28          25
6450          25          35
6460          24          29
6470          29          24
6480          30          23
6490          26          28
6500          28          27
6510          29          28
6520          26          38
6530          31          28
6540          26          28
6550          27          30
6560          26          34
6570          29          23
6580          27          31
6590          28          24
6600          26          33
6610          29          26
6620          23          31
6630          28          20
6640          25          29
6650          28          30
6660          31          29
6670          28          26
6680          24          28
6690          21          30
6700          24          29
6710          29          28
6720          25          28
6730          31          24
6740          29          29
6750          26          29
6760          30          34
6770          30          27
6780          25          31
6790          27          28
6800          28          29
6810          24          31
6820          27          22
6830          25          29
6840          27          27
6850          27          30
6860          28          33
6870          28          34
6880          28          32
6890          29          31
6900          31          30
6910          30          30
6920          25          35
6930          31          30
6940          32          22
6950          30          27
6960          26          32
6970          31          27
6980          30          34
6990          30          26
7000          26          33
7010          28          24
7020          27          26
7030          29          31
7040          29          31
7050          28          32
7060          33          28
7070          29          35
7080          31          32
7090          27          30
7100          29          28
7110          31          29
7120          29          32
7130          27          35
7140          30          30
7150          29          31
7160          32          35
7170          28          32
7180          35          30
7190          31          30
7200          26          33
7210          31          28
7220          30          32
7230          32          28
7240          34          25
7250          28          27
7260          26          36
7270          32          29
7280          22          31
7290          33          25
7300          26          32
7310          29          26
7320          35          29
7330          30          38
7340          30          35
7350          31          29
7360          27          34
7370          33          33
7380          31          32
7390          27          32
7400          30          34
7410          28          31
7420          34          29
7430          30          30
7440          32          27
7450          30          29
7460          30          27
7470          27          29
7480          29          34
7490          29          31
7500          30          32
7510          35          25
7520          33          30
7530          34          26
7540          31          30
7550          29          32
7560          28          33
7570          29          30
7580          29          31
7590          30          36
7600          29          32
7610          29          28
7620          29          35
7630          31          29
7640          27          29
7650          28          29
7660          28          31
7670          30          32
7680          34          27
7690          31          31
7700          32          23
7710          29          32
7720          33          25
7730          30          24
7740          27          28
7750          31          29
7760          29          27
7770          33          32
7780          27          27
7790          29          24
7800          28          26
7810          29          24
7820          27          26
7830          32          27
7840          30          29
7850          31          32
7860          30          28
7870          33          32
7880          31          35
7890          32          35
7900          32          32
7910          31          31
7920          33          29
7930          31          35
7940          35          26
7950          33          30
7960          35          30
7970          30          25
7980          35          27
7990          32          28
8000          32          27
8010          29          33
8020          35          23
8030          36          23
8040          34          34
8050          29          36
8060          36          32
8070          36          34
8080          31          35
8090          33          31
8100          30          35
8110          28          35
8120          30          29
8130          35          31
8140          30          36
8150          26          27
8160          32          33
8170          28          30
8180          30          33
8190          28          37
8200          28          36
8210          30          32
8220          28          33
8230          37          34
8240          30          33
8250          27          38
8260          32          41
8270          29          41
8280          32          35
8290          32          35
8300          33          35
8310          33          33
8320          34          40
8330          34          33
8340          31          32
8350          31          33
8360          35          24
8370          30          32
8380          29          35
8390          27          31
8400          30          40
8410          30          34
8420          29          32
8430          27          34
8440          31          30
8450          30          29
8460          34          24
8470          28          29
8480          29          34
8490          30          37
8500          31          35
8510          28          32
8520          34          33
8530          30          37
8540          31          34
8550          30          31
8560          32          29
8570          30          35
8580          34          32
8590          34          25
8600          34          32
8610          31          38
8620          32          32
8630          31          32
8640          33          25
8650          32          25
8660          33          23
8670          30          27
8680          29          25
8690          31          23
8700          33          24
8710          26          31
8720          31          22
8730          31          29
8740          29          31
8750          32          28
8760          34          22
8770          37          21
8780          31          29
8790          29          29
8800          32          28
8810          33          26
8820          30          27
8830          31          25
8840          29          26
8850          30          27
8860          31          23
8870          33          26
8880          28          25
8890          31          28
8900          25          32
8910          28          30
8920          30          35
8930          32          25
8940          30          24
8950          32          24
8960          34          23
8970          33          25
8980          33          29
8990          30          26
9000          32          29
9010          30          27
9020          29          31
9030          34          29
9040          29          30
9050          32          26
9060          27          33
9070          32          32
9080          30          38
9090          35          24
9100          34          33
9110          31          36
9120          34          32
9130          33          30
9140          38          26
9150          34          33
9160          34          31
9170          31          30
9180          28          30
9190          35          30
9200          34          29
9210          32          32
9220          31          30
9230          33          27
9240          34          27
9250          34          32
9260          30          34
9270          36          26
9280          34          24
9290          26          30
9300          29          33
9310          31          28
9320          30          24
9330          29          28
9340          32          27
9350          33          26
9360          32          28
9370          31          28
9380          33          24
9390          32          19
9400          31          21
9410          31          28
9420          28          36
9430          29          33
9440          29          29
9450          34          32
9460          32          32
9470          30          30
9480          37          21
9490          30          27
9500          33          30
9510          31          26
9520          33          23
9530          28          30
9540          28          26
9550          30          29
9560          33          27
9570          31          32
9580          36          28
9590          29          29
9600          33          27
9610          28          32
9620          33          29
9630          28          34
9640          30          36
9650          35          25
9660          30          26
9670          28          36
9680          29          33
9690          33          32
9700          31          32
9710          34          28
9720          31          37
9730          35          30
9740          29          34
9750          33          32
9760          32          33
9770          30          33
9780          30          32
9790          31          33
9800          33          26
9810          30          30
9820          33          22
9830          29          28
9840          31          31
9850          35          20
9860          28          27
9870          33          27
9880          32          26
9890          30          31
9900          31          23
9910          33          28
9920          32          21
9930          31          28
9940          33          24
9950          35          33
9960          29          24
9970          31          27
9980          33          21
9990          27          29
10000          31          23
