Time   C(t)   
ps   
0           1           1  2.05509e-10   0.0310851
10     0.69894     0.70285     3.63491   0.0188496
20    0.623008    0.627903  -0.0793363  0.00661409
30    0.566658    0.572285     1.02938  0.00514677
40    0.520072    0.526304    -1.05278  0.00437928
50    0.479073    0.485837     2.80267  0.00377177
60    0.444637    0.451849    -2.47051  0.00322894
70    0.414494    0.422097  -0.0248151   0.0029064
80    0.386509    0.394475     -1.0659  0.00249016
90    0.364691     0.37294   -0.995073  0.00203947
100     0.34572    0.354216    -1.73982  0.00194354
110     0.32582    0.334574    0.409905  0.00190659
120    0.307588    0.316579    -2.33807  0.00176177
130    0.290585    0.299796   -0.632263  0.00164998
140    0.274588    0.284008   -0.857629  0.00152301
150    0.260124    0.269732    0.773004  0.00133591
160     0.24787    0.257637   0.0285466   0.0011446
170    0.237233    0.247137    -1.30778  0.00112836
180    0.225303    0.235362    0.397949  0.00134758
190    0.210281    0.220536    0.545609  0.00123031
200    0.200697    0.211076    -0.12317  0.000974427
210    0.190792      0.2013     1.50848  0.00092762
220    0.182144    0.192764  -0.0508985  0.000892024
230    0.172952    0.183691    0.466962  0.00086749
240    0.164794     0.17564    -1.01703  0.000835428
250    0.156243      0.1672    -1.53677  0.000712772
260    0.150539    0.161569   -0.202326  0.000608768
270    0.144068    0.155182   -0.277496  0.000553342
280    0.139472    0.150646    -1.61404  0.000482763
290    0.134413    0.145653    0.166498  0.000563207
300    0.128208    0.139528    0.611216  0.000651405
310    0.121385    0.132794     1.64991  0.000493464
320    0.118339    0.129787     3.28105  0.00038462
330    0.113692    0.125201     1.20338  0.000332145
340    0.111696    0.123231     1.64795  0.000332972
350    0.107033    0.118628     1.12806  0.000428706
360    0.103122    0.114768   -0.281264  0.00038009
370    0.099431    0.111125  -0.0594475  0.000357997
380   0.0959617    0.107701    0.681894  0.000393132
390   0.0915684    0.103365   -0.208846  0.000401549
400   0.0879308   0.0997741   0.0136213  0.000256989
410   0.0864286   0.0982915   -0.210295  0.000292116
420   0.0820884   0.0940077    0.457325  0.00027723
430    0.080884   0.0928189    0.604912  0.00013593
440   0.0793698   0.0913244    0.604985  0.000197687
450   0.0769303   0.0889165   -0.360274  0.000275001
460   0.0738698   0.0858958   0.0848792  0.00025244
470   0.0718815   0.0839332    0.158962  0.000268444
480   0.0685009   0.0805966     0.60455  0.000272796
490   0.0664256   0.0785482    0.752789  0.000265715
500   0.0631866   0.0753513     1.12335  0.000254609
510   0.0613334   0.0735221    0.974315  0.000181657
520   0.0595535   0.0717653     2.08673  0.000201427
530   0.0573049   0.0695459     1.27036  0.000174662
540   0.0560602   0.0683174     1.19628  0.000159551
550   0.0541138   0.0663963     1.27021  0.000179297
560   0.0524743   0.0647781     1.41853  9.01718e-05
570   0.0523104   0.0646163     2.30883  5.14766e-05
580   0.0514448   0.0637619     2.60509  0.000137359
590   0.0495632   0.0619048     2.01221  0.000223499
600   0.0469748     0.05935     1.56691  0.000118403
610   0.0471952   0.0595675     2.08506  0.000126629
620   0.0444422   0.0568503      1.0468  0.00012674
630   0.0446604   0.0570656     1.63933  8.01139e-05
640   0.0428399   0.0552688     2.15907  0.000103728
650   0.0425858    0.055018      1.9366  1.75808e-05
660   0.0424883   0.0549217     1.34314  -2.03978e-06
670   0.0426266   0.0550582    0.823033  -4.53511e-05
680   0.0433953    0.055817    0.822598  -1.78199e-05
690    0.042983     0.05541    0.303289  4.91735e-05
700   0.0424119   0.0548463     0.37759  4.92703e-05
710   0.0419976   0.0544374    -1.10625  3.75161e-05
720   0.0416615   0.0541057   -0.438777  4.5521e-05
730   0.0410872   0.0535388    -1.10676  0.000101098
740   0.0396396     0.05211   -0.364693  0.000152852
750   0.0380301   0.0505214   -0.883857  0.000141259
760   0.0368144   0.0493215    0.377155  4.21733e-05
770   0.0371867   0.0496889    0.450732  2.64261e-05
780   0.0362859   0.0487998    -0.14295  2.64145e-05
790   0.0366584   0.0491675    -1.10777  -5.37317e-06
800   0.0363933   0.0489059   -0.588683  3.85111e-05
810   0.0358881   0.0484073   -0.142878   6.257e-05
820   0.0351419   0.0476708    0.598681  3.06748e-05
830   0.0352746   0.0478018    0.376069  5.08262e-05
840   0.0341254   0.0466674    0.450442  7.89439e-05
850   0.0336958   0.0462434    0.747138  4.30126e-05
860   0.0332652   0.0458184    0.302202   9.537e-05
870   0.0317884   0.0443607     1.11821  0.000163939
880   0.0299864   0.0425821    0.376793  0.000168309
890   0.0284222   0.0410383   -0.217251  0.000104158
900   0.0279032    0.040526    -0.58832  3.50084e-06
910   0.0283522   0.0409692    0.227539  1.97317e-05
920   0.0275086   0.0401365   -0.439936  8.04031e-05
930   0.0267441    0.039382   -0.292059  0.000104892
940   0.0254107   0.0380659    -1.33097  7.26479e-05
950   0.0252911   0.0379479   -0.070171  0.000105356
960   0.0233036   0.0359862   -0.663418  0.000174584
970   0.0217995   0.0345015   -0.514962  0.000146515
980   0.0203733   0.0330939   -0.885886  0.000163139
990   0.0185367   0.0312811    -1.92479  0.000151243
1000   0.0173485   0.0301083    -1.47928  3.73011e-05
1010   0.0177907   0.0305448    -1.18251  4.56491e-05
1020   0.0164355   0.0292072   -0.959752  8.65696e-05
1030   0.0160593   0.0288359   -0.217903  7.86245e-05
1040    0.014863   0.0276551   -0.663128  0.000115661
1050    0.013746   0.0265527   -0.663128  0.000111819
1060   0.0126266   0.0254478     -1.3314  8.32998e-05
1070     0.01208   0.0249083    -1.62831  5.33969e-06
1080   0.0125198   0.0253424    -1.48008  -4.40249e-05
1090   0.0129605   0.0257774    -1.33169  1.77342e-05
1100   0.0121651   0.0249923   -0.441675  0.000100277
1110    0.010955   0.0237979   -0.960911  8.39466e-05
1120   0.0104862   0.0233352     -1.2579  8.41777e-05
1130  0.00927145   0.0221362   -0.441747  8.01831e-05
1140  0.00888252   0.0217523   -0.886973  2.64967e-05
1150  0.00874152   0.0216132   -0.515759  -2.49227e-06
1160  0.00893237   0.0218015   -0.367374  9.98992e-06
1170  0.00854172    0.021416   -0.664143  1.65673e-06
1180  0.00889923   0.0217688   -0.589842  -2.32935e-05
1190  0.00900759   0.0218758   -0.367736  2.66897e-05
1200  0.00836544    0.021242   0.0777061  -6.69686e-06
1210  0.00914153    0.022008   -0.145124  1.72881e-06
1220  0.00833086   0.0212078    0.374475  1.41981e-05
1230  0.00885757   0.0217277   -0.442037  1.43065e-05
1240  0.00804473   0.0209254   0.0774888  2.68464e-05
1250  0.00832064   0.0211977    -0.66465  1.7737e-06
1260  0.00800925   0.0208904   -0.590276  -3.60945e-05
1270  0.00904253   0.0219103     0.15121  -5.2936e-05
1280  0.00906798   0.0219354   -0.442399  1.43077e-05
1290  0.00875637   0.0216278   -0.739023  -6.77337e-06
1300  0.00920344   0.0220691   -0.442327  -6.74506e-06
1310  0.00889128    0.021761    0.225148  4.39378e-05
1320  0.00832469   0.0212017  -0.0713302  3.55571e-05
1330  0.00818013   0.0210591   -0.368316  1.44721e-05
1340  0.00803525   0.0209161   0.0768366  1.87492e-05
1350  0.00780515    0.020689    -0.29416  -1.09482e-05
1360  0.00825421   0.0211322    0.299522  -1.51878e-05
1370  0.00810891   0.0209888    0.151065  -5.35795e-05
1380   0.0093258   0.0221899    0.225366  -4.50986e-05
1390  0.00901088    0.021879      1.1156  -2.6138e-06
1400  0.00937808   0.0222415   0.0767643  -6.23994e-05
1410   0.0102589   0.0231108   -0.516918  1.65156e-06
1420  0.00934505   0.0222089   -0.517063  1.43987e-05
1430  0.00997089   0.0228266   0.0766194  -2.62852e-06
1440  0.00939762   0.0222607   -0.145921  2.73445e-05
1450    0.009424   0.0222868    0.151065  -6.93933e-06
1460   0.0095364   0.0223977  0.00260849  5.95856e-06
1470  0.00930483   0.0221692    -0.29416  5.95301e-06
1480  0.00941734   0.0222802    0.150993  -4.57685e-05
1490   0.0102202   0.0230726   -0.665374  -2.85641e-05
1500  0.00998862   0.0228441   -0.442617  3.18313e-05
1510  0.00958358   0.0224443    0.224786  4.05524e-05
1520  0.00917758   0.0220436  -0.0719098  1.8982e-05
1530  0.00920394   0.0220696    0.076257  1.69906e-06
1540  0.00914359     0.02201   -0.591219  -2.64635e-06
1550  0.00925686   0.0221218   -0.146211  1.04038e-05
1560  0.00893552   0.0218046     0.29887  3.65265e-05
1570  0.00852633   0.0214008   0.0765469  4.09669e-05
1580  0.00811618   0.0209959   0.0767642  6.1505e-06
1590  0.00840332   0.0212794    0.595783  -4.18571e-05
1600  0.00895332   0.0218222  0.00231845  -3.75672e-05
1610  0.00915467   0.0220209   -0.145993  -4.20569e-05
1620  0.00979446   0.0226524    0.744022  -2.45908e-05
1630  0.00964648   0.0225064  -0.0715476  -2.74582e-06
1640  0.00984938   0.0227066      0.5217  -3.35002e-05
1650   0.0103165   0.0231677    0.595638  -3.79649e-05
1660   0.0106087   0.0234561    0.447326  -2.04422e-05
1670   0.0107253   0.0235712    0.298942  -3.37367e-05
1680   0.0112834    0.024122     0.74395  -4.26243e-05
1690   0.0115778   0.0244126    0.892769  -7.36662e-06
1700   0.0114307   0.0242675    0.670229  -1.62665e-05
1710   0.0119031   0.0247337     1.26362  5.89616e-06
1720   0.0113128   0.0241511     0.52199  5.84647e-06
1730   0.0117862   0.0246183   -0.368606  1.92547e-05
1740   0.0109277    0.023771    0.373823  1.03235e-05
1750   0.0115797   0.0244145    0.596218  -5.63739e-05
1760   0.0120552   0.0248838  0.00246351  -2.08444e-05
1770   0.0119966    0.024826    0.299232  5.86328e-06
1780   0.0119379   0.0247681   -0.516773  -2.54164e-05
1790    0.012505   0.0253277  -0.0718375  3.27482e-05
1800    0.011283   0.0241216   -0.146066  6.40885e-05
1810   0.0112232   0.0240626   -0.146138  5.98622e-06
1820   0.0111632   0.0240034    0.150775  6.44031e-05
1830  0.00993513   0.0227913    0.670301  5.99904e-05
1840  0.00996344   0.0228192     1.04115  4.22009e-05
1850  0.00909111   0.0219582     1.18968  9.18488e-05
1860  0.00812647   0.0210061     1.04137  5.14384e-05
1870  0.00806234   0.0209428    0.966925  6.9701e-05
1880  0.00673245   0.0196302    0.892841  6.07427e-05
1890  0.00684749   0.0197437    0.892769  3.37947e-05
1900  0.00605655   0.0189631    0.670301  2.47485e-05
1910  0.00635252   0.0192552     1.18939  3.85042e-05
1920  0.00528647    0.018203     1.26398  7.94485e-05
1930  0.00476355   0.0176868     1.48674  -6.84175e-06
1940   0.0054233    0.018338     1.04123  -1.13448e-05
1950  0.00499044   0.0179108    0.670229  2.2542e-06
1960  0.00537822   0.0182935     1.04094  3.8877e-05
1970   0.0042129   0.0171434     1.41215  5.26064e-05
1980  0.00432609   0.0172551     1.18968  2.99067e-05
1990  0.00361477    0.016553     1.18918  5.74577e-05
2000  0.00317694   0.0161208    0.595493  -6.69231e-06
2010  0.00374862   0.0166851    0.224279  7.15202e-06
2020   0.0030339   0.0159797    0.224279  4.39303e-05
2030  0.00287001   0.0158179    0.372518  4.40757e-05
2040  0.00215238   0.0151096    0.372446  2.56849e-05
2050  0.00235631   0.0153109    0.372301  1.19396e-05
2060  0.00191359   0.0148739    0.224062  1.19291e-05
2070  0.00211773   0.0150754    0.223917  -6.53676e-06
2080  0.00204433   0.0150029    0.372518  1.66293e-05
2090  0.00178514   0.0147471    0.372591  1.20137e-05
2100  0.00180405   0.0147658    0.224207  -2.5153e-05
2110   0.0022882   0.0152436   -0.220946  -5.31338e-05
2120  0.00286673   0.0158147   0.0015941  7.36484e-06
2130  0.00214091   0.0150983   -0.443559  7.30072e-06
2140  0.00272071   0.0156705   -0.221091  -4.40285e-05
2150  0.00302148   0.0159674   -0.369475  -2.07513e-05
2160  0.00313574   0.0160802   -0.295175  2.62106e-06
2170  0.00296905   0.0159157    -1.11118  2.60773e-05
2180  0.00261419   0.0155654    -1.40766  -2.06425e-06
2190  0.00301034   0.0159564   -0.962723  -2.02147e-06
2200  0.00265462   0.0156053    -1.33386  -2.07539e-06
2210  0.00305185   0.0159974    -1.77894  -3.50555e-05
2220  0.00335573   0.0162973    -1.48225  1.20852e-05
2230  0.00281014   0.0157588    -1.48218  -1.63172e-05
2240  0.00368208   0.0166194    -1.33379  -4.46831e-05
2250   0.0037038   0.0166409     -1.5564  1.67922e-05
2260  0.00334624   0.0162879    -1.70472  7.31525e-06
2270   0.0035575   0.0164965    -1.48218  -5.9189e-05
2280  0.00453002   0.0174563    -1.18548  -2.12099e-05
2290   0.0039817   0.0169151    -1.18541  1.20033e-05
2300  0.00428995   0.0172194   -0.740472  2.54405e-06
2310  0.00393082   0.0168649    -1.18541  -1.66091e-05
2320  0.00462213   0.0175473   -0.666389  -4.52952e-05
2330  0.00483672   0.0177591    -1.18584  1.68455e-05
2340  0.00428522   0.0172147    -0.96323  3.12326e-05
2350  0.00421207   0.0171425   -0.889001  1.21292e-05
2360  0.00404264   0.0169753   -0.889002  3.62068e-05
2370  0.00348793   0.0164278   -0.518222  3.14602e-05
2380  0.00341343   0.0163543   -0.592595  5.08662e-05
2390  0.00247061   0.0154237   -0.740907  4.61134e-05
2400  0.00249117    0.015444   -0.889146  1.24484e-05
2410  0.00222164   0.0151779   -0.815063  5.11992e-05
2420  0.00146718   0.0144333    -0.59245  5.61507e-05
2430  0.00109862   0.0140695   -0.369838  2.71953e-05
2440  0.000923278   0.0138964   -0.221598  1.26961e-05
2450  0.000844702   0.0138189   -0.740835  -2.62066e-05
2460  0.00144741   0.0144138   -0.369983  -2.62306e-05
2470  0.00136931   0.0143367   -0.740835  -1.65839e-05
2480  0.00177909   0.0147411   -0.889074  -8.01302e-05
2490  0.00297192   0.0159185   -0.666678  -1.17791e-05
2500  0.00201467   0.0149737   -0.666389  7.13508e-05
2510   0.0015449     0.01451   -0.517932  -2.02812e-06
2520  0.00205523   0.0150137   -0.443921  -2.65351e-05
2530   0.0020756   0.0150338    -0.59245  1.27209e-05
2540  0.00180081   0.0147626   -0.815063  1.76621e-05
2550  0.00172236   0.0146852   -0.963157  1.27894e-05
2560  0.00154503   0.0145101   -0.666534  2.26968e-05
2570  0.00126842   0.0142371    -0.59216  -1.18741e-05
2580  0.00178251   0.0147445   -0.888929  -3.6619e-05
2590   0.0020008     0.01496    -0.36962  1.28604e-05
2600   0.0015253   0.0144906    -0.14708  3.76821e-05
2610  0.00124716   0.0142161  0.00123169  -1.98901e-06
2620  0.00156508   0.0145299  0.00144907  -4.67754e-05
2630  0.00218267   0.0151395   -0.369838  -4.18953e-05
2640  0.00240299   0.0153569    -0.59245  -4.70294e-05
2650  0.00312326   0.0160679    -0.59245  -2.21213e-05
2660  0.00284541   0.0157936    -0.36991  1.28009e-05
2670  0.00286724   0.0158152   -0.518222  -2.22423e-05
2680  0.00329026   0.0162327   -0.815208  -2.22757e-05
2690  0.00331276   0.0162549  0.00108671  1.28306e-05
2700  0.00303365   0.0159794   -0.518077  3.80188e-05
2710  0.00255238   0.0155044   -0.295392  4.31509e-05
2720  0.00217063   0.0151276  0.00137659  2.81308e-05
2730  0.00198976   0.0149491  -0.0729242  1.30557e-05
2740  0.00190952   0.0148699   -0.295537  2.82857e-05
2750  0.00142405   0.0143907    0.075605  5.36835e-05
2760  0.000835845   0.0138101    0.149906  -1.72461e-05
2770  0.00176897   0.0147312   -0.295537  -2.73557e-05
2780  0.00138296   0.0143502   -0.295609  6.41078e-05
2790  0.000486814   0.0134656   -0.295392  3.87623e-05
2800  0.000607712    0.013585    0.520613  3.2074e-06
2810  0.000422666   0.0134023     0.52054  1.85304e-05
2820  0.000237105   0.0132192    0.446529  3.22523e-06
2830  0.000358161   0.0133387    0.446385  3.25566e-06
2840  0.000171992   0.0131549   -0.147225  1.35098e-05
2850  8.79648e-05    0.013072  -0.0728518  -1.86658e-06
2860  0.000209324   0.0131918    0.223917  -2.75961e-05
2870  0.000639886   0.0136167    -0.36962  -1.87734e-06
2880  0.00024687   0.0132288   -0.146645  -4.32379e-05
2890  0.00150464   0.0144703   -0.295392  -4.32434e-05
2900  0.00111174   0.0140825   -0.369403  1.34626e-05
2910  0.00123539   0.0142045   -0.888639  -2.27515e-05
2920  0.00156677   0.0145316   -0.814411  8.34682e-06
2930  0.00106846   0.0140397    -1.25949  -2.08516e-06
2940  0.00160847   0.0145727    -1.03688  -3.32543e-05
2950  0.00173354   0.0146962    -1.03717  8.32955e-06
2960  0.00144188   0.0144083   -0.740472  3.44284e-05
2970  0.00104497   0.0140166   -0.814773  8.37744e-06
2980  0.00127433   0.0142429   -0.369403  -2.82047e-05
2990  0.00160907   0.0145733   -0.369475  3.1815e-06
3000   0.0012107   0.0141801   -0.517642  1.88908e-05
3010  0.00123125   0.0142004   -0.592016  7.15586e-05
3020  -0.000220468   0.0127675   -0.888567  5.05949e-05
3030  0.000219355   0.0132017   -0.443631  -2.82257e-05
3040  0.000344045   0.0133247   -0.443559  -1.24868e-05
3050  0.00046909   0.0134482   -0.295464  1.92095e-05
3060  -4.01444e-05   0.0129455   0.0013042  5.6293e-05
3070  -0.00065677   0.0123369  0.00115932  8.29673e-05
3080  -0.00169949   0.0113077   -0.666244  7.78652e-05
3090  -0.00221407   0.0107998    0.149906  5.6852e-05
3100  -0.00283653   0.0101855   -0.221308  5.16822e-05
3110  -0.00324772  0.00977961    0.075605  5.18479e-05
3120  -0.00387349  0.00916196   -0.369693  2.52702e-05
3130  -0.00375312  0.00928077    0.446384  -2.81047e-05
3140  -0.00331139  0.00971676    0.224062  -2.81631e-05
3150  -0.00318986  0.00983672  -0.0731415  3.92669e-06
3160  -0.00338993  0.00963924   -0.666606  -1.22066e-05
3170  -0.00294573   0.0100777    -0.59245  -7.1394e-05
3180  -0.00196205   0.0110486   -0.814846  -7.6954e-05
3190  -0.00140665   0.0115968   -0.443921  -3.40314e-05
3200  -0.00128142   0.0117204   -0.443776  -5.03795e-05
3210  -0.000399056   0.0125913    -0.51786  -4.50591e-05
3220  -0.000380237   0.0126099   -0.740327  -5.60987e-05
3230  0.000722919   0.0136987       0.298  -3.98961e-05
3240  0.000417684   0.0133974    0.149761  3.05686e-05
3250  0.000111548   0.0130953    0.594769  1.4323e-05
3260  0.000131223   0.0131147    0.149471  5.25654e-05
3270  -0.000939761   0.0120576    0.223699  1.44076e-05
3280  -0.00015693   0.0128303    0.297783  -4.01101e-05
3290  -0.00013756   0.0128494    0.446095  -1.28962e-05
3300  0.000100995   0.0130848     0.29771  4.19444e-05
3310  -0.000976448   0.0120214    0.297783  8.59271e-05
3320  -0.00161755   0.0113886    0.446312  9.17928e-06
3330  -0.00116003   0.0118402    0.223627  1.48006e-05
3340  -0.00191356   0.0110964  0.000941798  5.89081e-05
3350  -0.00233819   0.0106773    0.223627  4.25276e-05
3360  -0.00276411   0.0102569    0.668925  4.8192e-05
3370  -0.00330204    0.009726    0.743298  4.27845e-05
3380  -0.0036198  0.00941236     1.11422  -1.81493e-05
3390  -0.00293905   0.0100843    0.891393  -4.03723e-05
3400  -0.00281236   0.0102093    0.149471  -7.11951e-06
3410  -0.00279666   0.0102248    0.520323  9.58365e-06
3420  -0.00300403   0.0100201    0.297565  -1.83363e-05
3430  -0.00242993   0.0105868     0.22341  -4.07122e-05
3440  -0.00218978   0.0108238    0.371649  -2.40517e-05
3450  -0.0019489   0.0110616    0.297493  -1.2901e-05
3460  -0.00193176   0.0110785  -0.0735039  -1.71632e-06
3470  -0.00191457   0.0110954   -0.370055  -7.35087e-06
3480  -0.00178475   0.0112236   -0.295899  1.51872e-05
3490  -0.00221832   0.0107956  0.000942049  7.16569e-05
3500  -0.00321788  0.00980905   -0.369838  6.05234e-05
3510  -0.00342878  0.00960089    0.149544  2.11227e-05
3520  -0.00364034  0.00939209    0.371866  4.16952e-06
3530  -0.00351217  0.00951859     0.44624  2.12534e-05
3540  -0.00406541  0.00897254  -0.0729966  -1.49529e-06
3550  -0.00348227   0.0095481  0.00108668  -6.41035e-05
3560  -0.00278334    0.010238    0.371866  -3.57531e-05
3570  -0.00276721   0.0102539    0.297855  -1.87666e-05
3580   -0.002408   0.0106084    0.149326  -4.17022e-05
3590  -0.00193316   0.0110771   0.0751702  -2.46188e-05
3600  -0.00191563   0.0110944   -0.666534  -3.62196e-05
3610  -0.00120877   0.0117921   -0.518222  -5.35376e-05
3620  -0.000844876   0.0121512    -0.59245  -1.91608e-05
3630  -0.000825552   0.0121703  -0.0731414  4.42318e-05
3640  -0.00172951   0.0112781   -0.221308  -7.72179e-06
3650  -0.000671116   0.0123228   -0.666606  -1.33806e-05
3660  -0.0014619   0.0115422   -0.592378  6.18086e-05
3670  -0.00190729   0.0111026   -0.295464  -1.8504e-06
3680  -0.00142489   0.0115788   -0.221381  -4.24995e-05
