Time   C(t)   
ps   
0           1           1  3.5964e-10   0.0213349
10    0.791934    0.820626    0.416111   0.0121346
20    0.757308    0.790775    0.804595  0.00293432
30    0.733248    0.770033    0.282393  0.00228782
40    0.711552    0.751329     1.90649  0.00194853
50    0.694277    0.736436     1.16893  0.00172306
60    0.677091     0.72162      1.1901  0.00157456
70    0.662786    0.709288      2.2937  0.00139858
80    0.649119    0.697505     1.92344  0.00132222
90    0.636341     0.68649     1.10044   0.0012654
100    0.623811    0.675687     1.42435  0.00117865
110    0.612768    0.666167     1.42395  0.00109172
120    0.601977    0.656864     1.55259  0.00109642
130     0.59084    0.647263     1.40067  0.00102772
140    0.581422    0.639144     1.44289  0.00097881
150    0.571264    0.630386   -0.225709  0.000915909
160    0.563104    0.623352   -0.573047  0.000916642
170    0.552931    0.614582   -0.292314  0.000963381
180    0.543837    0.606741   0.0100697  0.000887862
190    0.535174    0.599273    0.529796  0.000848356
200    0.526869    0.592114   0.0525904  0.000747329
210    0.520227    0.586388    0.160278  0.000754046
220    0.511789    0.579113    -1.20507  0.000741649
230    0.505394      0.5736    0.332836  0.000653988
240    0.498709    0.567837     0.44027  0.000605001
250    0.493294    0.563169    0.136257  0.000521891
260    0.488271    0.558838     1.58714  0.000553235
270    0.482229     0.55363    0.806657  0.000614943
280    0.475972    0.548235    0.459912  0.000578319
290    0.470663    0.543658   -0.818641  0.00051879
300    0.465596     0.53929   -0.841034  0.000503436
310    0.460594    0.534978    -1.20911  0.000482939
320    0.455938    0.530964    -1.33989  0.000483938
330    0.450915    0.526634    -1.07984  0.000439215
340    0.447153    0.523391   -0.495557  0.000497395
350    0.440968    0.518058   -0.798555  0.000471576
360    0.437722     0.51526   -0.149849  0.000384803
370    0.433271    0.511423    0.175202  0.000407173
380    0.429578    0.508239  -0.0202977  0.000488515
390    0.423501       0.503   -0.799401  0.000476675
400    0.420045    0.500021   -0.389054  0.000430451
410    0.414892    0.495578    -1.36383  0.000372338
420    0.412598    0.493601  -0.0865434  0.000363006
430    0.407632    0.489319    -1.14803  0.000421394
440     0.40417    0.486335    -1.23468  0.000381212
450    0.400008    0.482747    -1.40876  0.000410278
460    0.395965    0.479261   -0.130905  0.00041247
470    0.391758    0.475635    0.041844  0.000440371
480    0.387157    0.471668    0.280161  0.000409001
490    0.383578    0.468583   -0.348438  0.000382803
500    0.379501    0.465068   -0.262381  0.000471525
510    0.374148    0.460453     0.14951  0.000363725
520    0.372227    0.458796   -0.695881  0.000279143
530    0.368565     0.45564    0.213958  0.000357485
540    0.365077    0.452633   -0.652683  0.000364727
550     0.36127    0.449351   -0.327823  0.000316077
560    0.358755    0.447183   0.0178017  0.000315529
570     0.35496    0.443911    0.710742  0.00032005
580    0.352354    0.441665    0.796672  0.000286897
590    0.349222    0.438964    0.276713  0.000323997
600    0.345874    0.436078   -0.308244  0.000318177
610    0.342858    0.433478    0.232965  0.000390805
620    0.338058     0.42934    0.081826  0.000405936
630     0.33474    0.426479    0.384845  0.000330885
640    0.331441    0.423635   -0.200302  0.000288273
650    0.328974    0.421509   -0.243733  0.000229821
660    0.326844    0.419672    0.167037  0.000311823
670    0.322738    0.416132   -0.525861  0.000344013
680    0.319964    0.413741   -0.114521  0.000302687
690    0.316684    0.410913   -0.656216  0.000326981
700    0.313424    0.408103   -0.245065  0.000335656
710    0.309971    0.405126   -0.331249  0.000205514
720    0.309314    0.404559   -0.136934  0.000161067
730     0.30675    0.402349    0.490903  0.000185183
740     0.30561    0.401367      0.2739  0.000257279
750    0.301604    0.397913   -0.376012  0.000342654
760    0.298757    0.395459   -0.333153  0.000306243
770    0.295479    0.392632   -0.679243  0.000262964
780    0.293498    0.390925   -0.203476  0.000206305
790    0.291353    0.389075   -0.853938  0.000214751
800    0.289203    0.387222    0.055732  0.000272657
810      0.2859    0.384374   0.0992047  0.000310618
820    0.282991    0.381866   -0.182395  0.000221658
830    0.281467    0.380552    0.618804  0.000143176
840    0.280127    0.379397    0.878118  0.000205161
850    0.277364    0.377015     1.89603  0.000294162
860    0.274244    0.374326     0.42305  0.000267942
870    0.272005    0.372395    0.314622  0.000280625
880    0.268631    0.369487   -0.313617  0.000236732
890     0.26727    0.368313    0.769457  0.00014707
900     0.26569    0.366951    0.639165  0.00019325
910    0.263405    0.364981    0.292357  0.000200379
920    0.261682    0.363496   -0.011064  0.000198177
930    0.259441    0.361564    0.509022  0.000204018
940    0.257602    0.359979   -0.249719  0.000219361
950    0.255054    0.357782   -0.422997  0.000173658
960    0.254129    0.356984    0.638087  0.000146998
970    0.252114    0.355248   -0.207347  0.000246526
980    0.249198    0.352734   0.0312665  0.000195274
990    0.248209    0.351881      1.1136  0.000134519
1000    0.246508    0.350414   -0.121142  0.000171603
1010    0.244777    0.348922   0.0735759  0.000223879
1020     0.24203    0.346554   0.0737663  0.000220232
1030    0.240372    0.345125    0.744886  0.000174221
1040    0.238546     0.34355   -0.533477  0.000192428
1050    0.236524    0.341807   0.0729832  0.000269706
1060    0.233152      0.3389    0.874944  0.000255135
1070    0.231421    0.337408    0.290199  0.000126494
1080    0.230622    0.336719  -0.0138353  0.000121301
1090    0.228995    0.335316   -0.230818  0.000200133
1100    0.226619    0.333268     0.76622  0.000141171
1110    0.226171    0.332882    0.397294  0.000133305
1120    0.223953     0.33097   0.0943178  0.000123857
1130    0.223694    0.330747     1.11212  6.8859e-05
1140    0.222576    0.329783     1.13352  0.000160444
1150    0.220485     0.32798     1.04689  0.000239858
1160    0.217779    0.325647     1.71854  0.000265376
1170    0.215178    0.323405     2.36832  0.000193641
1180    0.213906    0.322308     1.41472  0.000166328
1190    0.211851    0.320537    0.938017  0.000204296
1200     0.20982    0.318786     1.13261  0.000182419
1210    0.208203    0.317392     1.26245  0.000220598
1220    0.205408    0.314982     1.95595  0.00019026
1230    0.204398    0.314111     1.08863  0.000145985
1240    0.202488    0.312465     1.50054    0.000236
1250    0.199678    0.310042     1.08926  0.000194372
1260    0.198601    0.309114     1.41402  9.65334e-05
1270    0.197747    0.308378    0.113981  0.000119273
1280    0.196216    0.307057    0.980516  0.000101185
1290    0.195723    0.306633    0.915329  0.000108536
1300    0.194045    0.305186    0.872004  0.000170872
1310    0.192306    0.303687     1.11013  0.000179733
1320     0.19045    0.302087     1.19695  0.000215511
1330    0.187996    0.299971     1.02386  0.000215971
1340    0.186131    0.298363    0.633877  0.000108714
1350    0.185821    0.298097    0.524899  0.000126084
1360    0.183609    0.296189   -0.298312  0.000123423
1370    0.183353    0.295969    0.871496  8.53986e-05
1380    0.181901    0.294717    0.546085  0.000183841
1390    0.179676    0.292799    0.459372  0.000152854
1400    0.178844    0.292081    0.676017  0.000130439
1410    0.177067     0.29055    0.567504  0.000137832
1420    0.176087    0.289705    0.350945  0.00011529
1430    0.174762    0.288562     1.15214  0.000125556
1440    0.173576     0.28754    0.198917  0.000117265
1450    0.172416     0.28654    0.848448  0.000107495
1460    0.171426    0.285687    0.306795  0.000109193
1470    0.170232    0.284657  0.00360698  0.000151195
1480    0.168402     0.28308     1.12977  0.00019476
1490    0.166337    0.281299    0.631909  0.000150455
1500    0.165393    0.280486    0.479776  0.000149439
1510    0.163349    0.278723     1.04312  9.18478e-05
1520    0.163556    0.278902    0.522868  2.41034e-05
1530    0.162866    0.278307    0.176038  5.02415e-05
1540    0.162552    0.278036     1.15022  7.50504e-05
1550    0.161365    0.277013     1.77886  0.000156579
1560     0.15942    0.275336     2.23331  0.000187479
1570    0.157616     0.27378     1.62696  0.000116528
1580    0.157089    0.273327     2.21124  0.000156273
1590     0.15449    0.271086     1.34542  0.000179886
1600    0.153492    0.270225      1.3018  0.000113137
1610    0.152228    0.269135     1.84305  7.38658e-05
1620    0.152014    0.268952     1.36564  0.000112224
1630    0.149983      0.2672     1.04105  0.000131463
1640    0.149385    0.266685     1.32223  5.39824e-05
1650    0.148904     0.26627    0.910653  6.44118e-05
1660    0.148097    0.265574     1.56004  0.000114626
1670    0.146611    0.264293     1.62516  0.000187124
1680    0.144354    0.262348     1.14874  0.000150623
1690    0.143599    0.261696     1.56023  0.000158464
1700    0.141185    0.259616      1.4522  9.51022e-05
1710    0.141696    0.260056     1.68995  9.55023e-05
1720    0.139275    0.257969    0.932496  0.000203861
1730    0.137619    0.256541     1.60355  0.000116775
1740     0.13694    0.255956     1.77685  7.84554e-05
1750     0.13605    0.255189     2.08067  3.24555e-05
1760    0.136291    0.255396     1.08363  2.81312e-05
1770    0.135488    0.254704     1.36494  0.000132619
1780    0.133638    0.253109     1.17024  0.000144841
1790    0.132591    0.252206     1.12645  9.13702e-05
1800    0.131811    0.251534     1.01832  7.51302e-05
1810    0.131088    0.250911     1.25649  4.08299e-05
1820    0.130994     0.25083      1.2777  8.60289e-05
1830    0.129368    0.249428     1.49419  0.000147799
1840    0.128038    0.248282     1.88458  0.000164707
1850    0.126073    0.246588     1.75463  0.00010931
1860    0.125852    0.246397     1.55947  5.53668e-05
1870    0.124966    0.245633     1.99235  0.000135552
1880    0.123141     0.24406    0.974805  0.000119179
1890    0.122582    0.243578     1.55879  0.000161953
1900    0.119902    0.241267    0.800935  0.000218352
1910    0.118215    0.239813     1.06073  0.000205287
1920    0.115796    0.237728    0.800977  0.000223992
1930    0.113736    0.235951     1.01747  8.75611e-05
1940    0.114045    0.236218     1.40691  5.43941e-05
1950    0.112648    0.235013     1.25537  8.34335e-05
1960    0.112376    0.234779     1.03838  0.000121904
1970     0.11021    0.232912     1.29829  0.000138911
1980    0.109598    0.232384     1.58031  7.1964e-05
1990     0.10877    0.231671     1.03824  6.29205e-05
2000     0.10834    0.231299     1.03773  1.2432e-05
2010    0.108522    0.231456     1.44928  3.4038e-05
2020    0.107659    0.230713     1.01584  0.000129493
2030    0.105932    0.229224     1.31912  0.000114341
2040    0.105372    0.228741    0.864007  6.53192e-05
2050    0.104625    0.228097    0.928815  0.000105662
2060    0.103259    0.226919     1.53525  0.000104336
2070    0.102539    0.226299     0.84189  0.000101536
2080    0.101228    0.225169     0.92892  5.83272e-05
2090    0.101372    0.225293    0.603509  6.47821e-05
2100   0.0999324    0.224052    0.278881  0.000116166
2110   0.0990489     0.22329    0.712128  9.4698e-05
2120   0.0980384    0.222419    0.603531  9.33796e-05
2130   0.0971813     0.22168    0.690095  8.26884e-05
2140   0.0963847    0.220993    0.451461  0.000104767
2150    0.095086    0.219873    0.451884  0.000111272
2160   0.0941592    0.219075    0.494933  5.67485e-05
2170    0.093951    0.218895    0.321444  4.90893e-05
2180   0.0931774    0.218228    0.776576  6.80368e-05
2190   0.0925903    0.217722      0.5165  0.000101252
2200   0.0911524    0.216482     1.27499  8.41282e-05
2210   0.0909077    0.216271     1.01451  1.50327e-05
2220   0.0908517    0.216223     1.27425  9.24516e-05
2230   0.0890587    0.214677     1.10137  0.000111562
2240   0.0886205      0.2143     1.72991  4.86221e-05
2250   0.0880862    0.213839     1.38312  1.70313e-05
2260   0.0882799    0.214006     1.20955  4.2503e-05
2270   0.0872362    0.213106     1.31806  8.06808e-05
2280   0.0866663    0.212615     1.14489  1.40924e-05
2290   0.0869543    0.212863     1.18792  2.21401e-05
2300   0.0862235    0.212233     1.38263  0.000111478
2310   0.0847248    0.210941     1.59947  8.29726e-05
2320    0.084564    0.210802     1.27452  6.49281e-06
2330   0.0845949    0.210829     1.44748  3.05377e-05
2340   0.0839533    0.210276     1.25245  5.78545e-05
2350   0.0834378    0.209832     1.49085  8.85289e-05
2360   0.0821827     0.20875     1.10076  6.77917e-05
2370    0.082082    0.208663     1.42562  3.9066e-05
2380   0.0814014    0.208076     0.62368  8.4269e-05
2390   0.0803966     0.20721    0.862146  7.15621e-05
2400   0.0799701    0.206842     1.29546  6.37121e-05
2410   0.0791224    0.206111     1.38175  0.000130215
2420   0.0773658    0.204597     0.45072  0.000127258
2430   0.0765772    0.203917    0.602007  0.00010818
2440   0.0752022    0.202732    0.341848  7.59203e-05
2450   0.0750588    0.202608    0.666688  3.22688e-05
2460   0.0745569    0.202175  -0.0486875  9.42547e-05
2470   0.0731737    0.200983   0.0163311  0.00010586
2480   0.0724397     0.20035  -0.0270359  0.000111092
2490   0.0709519    0.199067   -0.481786  0.000112982
2500     0.07018    0.198402   -0.698409  5.1064e-05
2510   0.0699306    0.198187    -0.98022  7.91274e-05
2520   0.0685975    0.197038   -0.590066  6.44937e-05
2530   0.0686407    0.197075   -0.287237  6.14647e-05
2540   0.0673682    0.195978   -0.828531  9.28327e-05
2550   0.0667841    0.195474     -1.2618  7.3332e-05
2560   0.0659015    0.194714   -0.958463  4.2136e-05
2570   0.0659413    0.194748   -0.698578  6.87797e-05
2580   0.0645259    0.193528    -0.67699  0.000105292
2590   0.0638355    0.192932    -1.56507  8.07393e-05
2600   0.0629112    0.192136    -1.39169  5.93662e-05
2610   0.0626482    0.191909    -1.28362  2.46689e-05
2620   0.0624178     0.19171    -1.11038  2.47292e-05
2630   0.0621536    0.191482    -1.19718  8.12803e-06
2640   0.0622552     0.19157   -0.504263  -1.85292e-05
2650   0.0625242    0.191802    -0.35251  4.82919e-05
2660   0.0612894    0.190737   -0.569218  5.33449e-05
2670   0.0614573    0.190882   -0.742918  2.34069e-05
2680   0.0608212    0.190334   -0.439921  7.88011e-05
2690   0.0598812    0.189523   -0.201456  6.55558e-05
2700   0.0595101    0.189204   -0.482992  0.000107851
2710   0.0577242    0.187664   -0.634554  9.62526e-05
2720   0.0575851    0.187544   -0.374818  3.41902e-05
2730   0.0570404    0.187074    -0.95969  4.94689e-05
2740   0.0565957    0.186691   -0.851283  7.16088e-05
2750   0.0556082     0.18584    -1.13299  5.67362e-06
2760   0.0564822    0.186593   -0.786984  4.48469e-05
2770   0.0547113    0.185066    -1.15477  0.00010087
2780   0.0544648    0.184854    -0.70008  9.27515e-05
2790   0.0528563    0.183467    -1.06831  0.000154263
2800   0.0513796    0.182194   -0.851621  8.81443e-05
2810   0.0510934    0.181947    -0.22389  0.00012094
2820   0.0489608    0.180109   -0.440154  0.000151949
2830   0.0480544    0.179328   0.0577941  6.67779e-05
2840   0.0476252    0.178958   -0.202175  -1.63168e-06
2850    0.048087    0.179356   -0.527205  6.88795e-05
2860   0.0462476     0.17777   -0.873442  0.000153221
2870   0.0450226    0.176714   -0.743511  5.03073e-05
2880   0.0452415    0.176903    -2.02183  7.40979e-06
2890   0.0448744    0.176586    -1.52378  0.00013008
2900   0.0426399     0.17466    -1.54507  0.000102627
2910   0.0428219    0.174817    -1.89165  1.47067e-05
2920   0.0423457    0.174406    -1.91362  2.3381e-05
2930   0.0423542    0.174413     -1.2855  1.6531e-05
2940   0.0420151    0.174121    -1.43709  3.22109e-05
2950     0.04171    0.173858    -2.15212  9.3095e-07
2960   0.0419965    0.174105    -1.02627  4.28731e-05
2970   0.0408526    0.173119    -1.32929  0.000116302
2980   0.0396705      0.1721    -1.37285  0.000144624
2990   0.0379601    0.170625    -1.61096  8.71573e-05
3000   0.0379273    0.170597   -0.463159  7.34948e-05
3010   0.0364902    0.169358    -1.11294  0.000114028
3020   0.0356467    0.168631    -1.15627  5.8067e-05
3030   0.0353289    0.168357    -1.37317  3.88905e-05
3040   0.0348689     0.16796    -1.30781  2.66341e-05
3050   0.0347962    0.167898    -1.61146  4.08741e-05
3060   0.0340515    0.167256    -2.26123  0.000147169
3070   0.0318528     0.16536    -1.80618  9.96135e-05
3080   0.0320592    0.165538    -2.04458  4.19766e-06
3090   0.0317688    0.165288    -2.28307  5.96233e-06
3100   0.0319399    0.165435    -2.65136  2.91567e-05
3110   0.0311857    0.164785    -2.21845  7.01899e-05
3120   0.0305361    0.164225    -2.30512  9.89758e-05
3130   0.0292062    0.163079    -2.45654  6.7025e-05
3140   0.0291956    0.163069    -2.37021  -4.32637e-06
3150   0.0292927    0.163153    -2.80343  4.40977e-05
3160   0.0283137    0.162309    -2.80354  0.000101629
3170   0.0272601    0.161401     -3.3017  0.000101924
3180   0.0262752    0.160552    -3.28019  6.4389e-05
3190   0.0259724    0.160291    -2.73879  4.83929e-05
3200   0.0253074    0.159717    -2.91222  3.40578e-05
3210   0.0252912    0.159703    -2.37112  4.32464e-05
3220   0.0244424    0.158972    -2.34925  7.41246e-05
3230   0.0238087    0.158425    -2.15447  4.89512e-05
3240   0.0234634    0.158128    -2.00293  5.09321e-05
3250   0.0227901    0.157547    -2.06801  0.00011113
3260   0.0212408    0.156212    -2.71771  0.000107756
3270   0.0206349    0.155689    -2.28432  6.0672e-05
3280   0.0200274    0.155165    -2.39272  3.34253e-05
3290   0.0199664    0.155113    -2.97762  5.00531e-05
3300   0.0190263    0.154302    -2.13295  0.000150998
3310   0.0169465    0.152509    -2.45753  0.000105444
3320   0.0169174    0.152484    -2.32794  1.57896e-05
3330   0.0166307    0.152237    -2.58787  4.52895e-05
3340   0.0160116    0.151703    -2.69629  0.00010075
3350   0.0146157      0.1505    -2.60952  0.000108388
3360   0.0138439    0.149835    -2.13337  4.58434e-05
3370   0.0136988     0.14971    -1.98174  7.01224e-05
3380   0.0124414    0.148626    -2.41484  0.000109222
3390   0.0115144    0.147826    -2.43641  1.84886e-05
3400   0.0120717    0.148307    -2.15521  3.77065e-06
3410    0.011439    0.147761    -1.98185  8.57365e-05
3420   0.0103569    0.146829    -1.70042  8.40945e-05
3430  0.00975707    0.146311    -2.17688  9.37377e-05
3440  0.00848218    0.145212    -1.89512  8.64729e-05
3450  0.00802761     0.14482    -1.91696  3.6157e-05
3460  0.00775904    0.144589    -1.80874  2.87687e-05
3470  0.00745224    0.144324    -1.87401  -3.13683e-05
3480  0.00838641     0.14513    -1.87444  6.32189e-06
3490   0.0073258    0.144215    -1.57093  4.7711e-05
3500  0.00743219    0.144307    -1.44113   4.475e-06
3510   0.0072363    0.144138    -1.54949  2.15082e-05
3520  0.00700202    0.143936    -1.26791  6.32837e-05
3530  0.00597063    0.143047    -1.24618  4.44252e-05
3540  0.00611352     0.14317    -1.65762  2.75346e-05
3550  0.00541994    0.142572    -1.15951  4.08948e-05
3560  0.00529562    0.142465    -1.20317  6.77786e-05
3570  0.00406436    0.141404   -0.964407  5.07013e-05
3580   0.0042816    0.141591    -1.50606  1.46099e-05
3590  0.00377217    0.141152    -1.48445  4.52704e-05
3600  0.00337619     0.14081    -1.59269  2.62175e-05
3610  0.00324782      0.1407    -1.44113  7.05545e-05
3620   0.0019651    0.139594    -1.05082  4.7571e-05
3630   0.0022964     0.13988    -1.18118  3.04833e-05
3640  0.00135543    0.139068    -1.09449  7.29891e-05
3650  0.000836615    0.138621    -1.11597  6.74441e-05
3660  6.55091e-06    0.137905    -1.28918  9.48758e-06
3670  0.000646863    0.138458    -1.44149  2.12827e-05
3680  -0.000419103    0.137539   -0.986207  0.000108708
3690  -0.0015273    0.136583      -1.376  -4.32192e-09
3700  -0.000419016    0.137539    -1.15961  -3.4935e-05
3710  -0.000828595    0.137186    -1.54962  1.9454e-06
