Time   C(t)   
ps   
0           1           1  2.80329e-10   0.0478647
10     0.52687    0.842572   -0.648399   0.0246232
20    0.507537    0.836139    -1.46077   0.0013816
30    0.499238    0.833378    -2.23283   0.0012842
40    0.481853    0.827593    -1.29169  0.00148804
50    0.469477    0.823475    -2.31761  0.00110634
60    0.459726    0.820231    -1.67628  0.00116552
70    0.446166    0.815719    -1.84716  0.000864305
80     0.44244    0.814479    -0.86575  0.000714648
90    0.431874    0.810963    -1.84857  0.000582618
100    0.430788    0.810602   -0.781731  0.000336969
110    0.425134    0.808721    -1.29511  0.000553301
120    0.419722     0.80692   -0.355294  0.00048455
130    0.415443    0.805496   -0.354919  0.000612755
140    0.407467    0.802842   -0.270023  0.000804913
150    0.399345     0.80014    -1.80694  0.000264707
160    0.402173    0.801081    -1.25398  3.60772e-05
170    0.398623      0.7999   -0.612859  0.000419094
180    0.393791    0.798292    -1.16887  0.000106585
190    0.396492     0.79919    -1.89735  0.000203148
200    0.389728     0.79694    -1.81107  0.000651556
210     0.38346    0.794854   -0.740849  0.000447746
220    0.380773     0.79396    -1.51058  0.00030752
230     0.37731    0.792808    -2.45094  8.96394e-05
240     0.37898    0.793364    -4.37591  0.000193089
250    0.373448    0.791523    -1.59735  0.000315456
260    0.372671    0.791264    -3.43535  7.77796e-05
270    0.371893    0.791005    -5.01707  0.000187625
280    0.368918    0.790016    -2.96577  0.000601336
290    0.359866    0.787004    -3.47707  0.000246659
300    0.363985    0.788374    -4.29135  8.60468e-05
310    0.358145    0.786431    -3.52124  0.000610526
320    0.351775    0.784311    -2.11127  0.000319836
330    0.351748    0.784303    -2.45478  0.000262378
340    0.346527    0.782565    -2.36959  0.000529172
350    0.341165    0.780781    -3.00983  0.000426151
360    0.338004    0.779729    -3.73617  0.000218751
370     0.33679    0.779325    -2.58314  0.00013454
380    0.335313    0.778834    -2.92543  0.000258805
390    0.331614    0.777603    -3.52375  0.000422587
400    0.326862    0.776022    -3.52379  0.000384153
410    0.323931    0.775047     -2.4554  -2.08601e-05
420    0.327279    0.776161    -4.37996  0.000248145
430    0.318968    0.773395    -3.22543  0.000267725
440    0.321924    0.774379    -2.11566  0.000111216
450    0.316744    0.772655    -3.56839  0.000235973
460    0.317205    0.772809    -2.54368  0.000210501
470    0.312533    0.771254    -2.71418  0.00048077
480    0.307589    0.769609    -2.67025  0.00036297
490    0.305274    0.768839    -2.32942  -4.54545e-05
500    0.308499    0.769912    -2.75802  0.000153071
510    0.302213     0.76782    -3.56893  0.00045725
520    0.299354    0.766869    -4.21126  0.000504747
530    0.292118    0.764461    -4.85091  0.000233725
540    0.294679    0.765314    -3.91268  0.000128528
550    0.289547    0.763606    -4.42489  0.000247967
560     0.28972    0.763663    -4.89576  0.00011581
570    0.287231    0.762835    -4.08368  0.000202467
580     0.28567    0.762316    -4.64011  0.000182888
590    0.283573    0.761618    -2.80158   0.0001966
600    0.281738    0.761008    -4.12674  0.000150347
610    0.280566    0.760618    -4.12749  -0.000116768
620    0.284074    0.761785    -4.94081  -6.32882e-05
630    0.281832    0.761039    -4.55681  0.000412089
640    0.275832    0.759042    -4.42765  0.000493282
650    0.271966    0.757756    -4.72797  0.000138552
660    0.273061     0.75812    -6.01033  0.00011891
670    0.269588    0.756965    -5.07081  2.46927e-05
680    0.272567    0.757956    -5.84071  0.000516909
690     0.25925    0.753525     -5.7095  0.000631735
700    0.259932    0.753752    -6.13786  -0.000338268
710    0.266015    0.755776    -5.32779  -0.000230554
720    0.264543    0.755286    -4.68726  0.000289464
730    0.260226     0.75385    -4.04685  0.000283194
740     0.25888    0.753402    -4.26003  -0.000102554
750    0.262277    0.754532    -4.09103  0.000352249
760    0.251835    0.751058     -5.1149   0.0005358
770    0.251561    0.750967    -5.24431  0.000258581
780    0.246663    0.749337    -4.77315  0.000122653
790    0.249108     0.75015     -5.4159  0.000171055
800    0.243242    0.748198    -4.64571  0.000239278
810    0.244323    0.748558    -5.20255  6.24999e-05
820    0.241992    0.747783    -4.64721  0.00032916
830    0.237739    0.746368    -4.94607  0.000220282
840    0.237586    0.746317    -3.45096  0.000214101
850    0.233457    0.744943    -4.30554  0.000166308
860     0.23426     0.74521    -4.51964  1.58533e-05
870     0.23314    0.744837    -4.77662  0.000263301
880    0.228994    0.743458    -5.11845  0.000208647
890    0.228967    0.743449    -4.17868  0.000154244
900    0.225909    0.742431    -3.58007  5.08651e-05
910     0.22795     0.74311    -4.52089  0.000189407
920    0.222121    0.741171    -4.22127  0.000431471
930    0.219321    0.740239    -3.62275  0.000453345
940    0.213054    0.738154    -3.79338  -3.31402e-06
950    0.219387    0.740261    -4.65038  -3.03186e-05
960     0.21366    0.738356    -4.34968  0.000212059
970    0.215146     0.73885    -4.26541  -3.04528e-05
980     0.21427    0.738558    -5.07849  0.000178149
990    0.211583    0.737664    -4.82163  0.000408444
1000    0.206101     0.73584    -3.66747  0.000179009
1010    0.208003    0.736473    -4.30967  4.70407e-05
1020     0.20516    0.735527    -5.67676  0.000214665
1030    0.203709    0.735044    -3.28346  0.000110293
1040    0.202954    0.734793    -4.48105  8.25539e-05
1050    0.202058    0.734495    -3.49798  0.000286167
1060    0.197231    0.732889    -4.13888  0.000258509
1070    0.196888    0.732775    -4.61013  0.00030151
1080      0.1912    0.730882    -4.35277  0.000287842
1090    0.191131    0.730859    -4.69552  0.000147849
1100    0.188243    0.729898    -4.78046  -7.78072e-05
1110    0.192687    0.731377    -4.35486  0.000169694
1120     0.18485    0.728769    -4.60946  0.000438118
1130    0.183925    0.728462    -4.43908  -0.000126881
1140    0.187387    0.729614    -4.61196  5.02378e-05
1150     0.18292    0.728127     -3.4999  0.000170581
1160    0.183976    0.728478    -4.27025  -0.000105751
1170    0.185035    0.728831    -4.18569  0.000420159
1180    0.175572    0.725682    -4.26888  0.000185663
1190    0.181322    0.727595    -3.50169  -5.53884e-05
1200     0.17668    0.726051    -3.92888  0.00025781
1210    0.176166     0.72588    -5.25416  0.000122932
1220    0.174222    0.725233    -5.80947  0.000130276
1230     0.17356    0.725013    -5.51127  0.000202242
1240    0.170177    0.723887    -5.16852  0.000317265
1250    0.167215    0.722901    -5.68131  0.00021034
1260     0.16597    0.722487    -3.84327  0.00013186
1270    0.164578    0.722024    -3.24563  0.000175399
1280    0.162462     0.72132    -3.20212  0.000132523
1290    0.161927    0.721142    -3.11814  0.000277067
1300    0.156921    0.719476    -4.14276  0.000284716
1310    0.156233    0.719247    -3.80097  4.7157e-05
1320    0.155977    0.719162    -3.11822  0.000264286
1330    0.150947    0.717489    -4.01528  0.000395001
1340    0.148077    0.716534    -2.43338  3.34896e-05
1350    0.150277    0.717266    -4.05879  8.4623e-05
1360    0.146385    0.715971    -4.57125  9.90607e-05
1370    0.148296    0.716606    -3.11864  5.06938e-06
1380    0.146284    0.715937    -2.64882  0.000179609
1390    0.144704    0.715411    -2.73434  0.000194656
1400     0.14239    0.714641    -3.46152  0.000238921
1410    0.139926    0.713821    -3.88829  0.00015908
1420    0.139209    0.713583    -2.56342  4.24191e-05
1430    0.139077    0.713539    -4.01728  0.000320937
1440     0.13279    0.711447    -3.54645  0.000314049
1450    0.132796    0.711449    -3.11998  1.40086e-05
1460     0.13251    0.711354     -4.3597  -1.54324e-05
1470    0.133105    0.711552    -4.70245  0.000338009
1480     0.12575    0.709104    -4.74291  0.000308872
1490    0.126927    0.709496    -4.35941  -0.000206479
1500    0.129879    0.710479    -5.00098  -0.000251146
1510     0.13195    0.711168    -5.30093  0.000384306
1520    0.122193    0.707921    -4.91442  3.64274e-05
1530    0.131222    0.710925     -4.9601  -0.000429439
1540    0.130782    0.710779    -5.51557  0.000318662
1550    0.124849    0.708805     -4.6166  0.00034143
1560    0.123953    0.708507    -4.78768  8.21244e-05
1570    0.123206    0.708258    -5.21603  6.73726e-05
1580    0.122606    0.708058    -6.24204  0.000336047
1590    0.116485    0.706022    -5.00098  -5.16985e-05
1600     0.12364    0.708402     -4.3199  -0.000230474
1610    0.121095    0.707556    -3.80577  -3.70178e-05
1620     0.12438    0.708649    -3.80757  -0.000186604
1630    0.124827    0.708797    -4.57671  0.000450469
1640    0.115371    0.705651    -4.06234  0.000571107
1650    0.113405    0.704997    -3.84924  -6.63068e-05
1660    0.116697    0.706092    -5.60184  -0.000314596
1670    0.119696     0.70709    -6.20103  -9.67413e-05
1680    0.118632    0.706736    -4.10639  0.000234854
1690    0.114999    0.705527    -5.60188  0.000288155
1700    0.112869    0.704818    -4.27756  -3.63555e-05
1710    0.115727    0.705769    -4.27822  6.23386e-05
1720    0.111622    0.704404    -2.69671  0.000365416
1730    0.108418    0.703338    -3.59385  0.000396702
1740    0.103688    0.701764    -4.74684  0.000116276
1750    0.106093    0.702564    -3.59406  -5.80844e-05
1760     0.10485     0.70215    -3.76472  0.000162609
1770     0.10284    0.701482    -3.50833  0.000162932
1780    0.101591    0.701066    -2.78244  0.000117539
1790     0.10049      0.7007    -4.40688  7.96255e-05
1800   0.0999985    0.700536    -3.50929  -0.000257174
1810    0.105633    0.702411     -2.8267  -0.000157719
1820    0.103153    0.701586    -3.04034  -0.000104785
1830    0.107729    0.703108     -4.6229  -0.000219986
1840    0.107553     0.70305    -3.25452  0.000102384
1850    0.105681    0.702427    -3.76802  0.000125717
1860    0.105038    0.702213    -4.19508  -0.000282808
1870    0.111337    0.704309    -4.02584  0.000195821
1880    0.101122     0.70091    -3.08331  0.000581945
1890   0.0996985    0.700436    -3.59631  -5.10175e-05
1900    0.102142    0.701249    -2.99866  -0.00014389
1910    0.102576    0.701394    -3.59802  0.000119501
1920   0.0997522    0.700454    -4.11081  0.000158444
1930   0.0994074    0.700339     -3.7686  0.000112335
1940   0.0975055    0.699707     -3.7686  9.69563e-05
1950   0.0974682    0.699694    -2.57181  -0.000183532
1960    0.101176    0.700928    -3.47053  -7.4457e-05
1970   0.0989574     0.70019    -3.72618  0.000214379
1980   0.0968886    0.699501    -3.04188  -0.000176582
1990    0.102489    0.701365    -3.55655  -0.000317659
2000    0.103242    0.701615    -4.96732  0.000348515
2010   0.0955187    0.699045    -3.81195  0.000278061
2020   0.0976805    0.699765    -4.45448  -0.000192802
2030   0.0993748    0.700329     -3.7709  8.25003e-05
2040   0.0960305    0.699216    -5.35183  0.000287493
2050   0.0936249    0.698415     -4.7541  5.91859e-05
2060   0.0948468    0.698822    -5.30995  -8.27871e-05
2070   0.0952807    0.698966    -5.26723  -7.51019e-05
2080   0.0963488    0.699322    -4.88338  -0.000249722
2090    0.100275    0.700628    -5.65307  -9.93121e-05
2100   0.0983351    0.699983    -5.09727  0.00031344
2110   0.0940063    0.698542    -4.92648  0.000146917
2120   0.0953967    0.699005    -4.11482  0.000179555
2130   0.0904152    0.697347    -5.18237  -1.99195e-05
2140   0.0957951    0.699137    -6.76522  -0.000131198
2150   0.0930391     0.69822    -5.05509  0.000123979
2160   0.0933155    0.698312     -5.9529   0.0001966
2170   0.0891071    0.696912    -6.03767  0.000156707
2180   0.0901814     0.69727    -7.57667  4.86374e-06
2190   0.0890099     0.69688    -5.82474  1.27636e-05
2200   0.0899261    0.697185    -7.49161  -1.92571e-05
2210    0.089395    0.697008    -6.08222  0.000254711
2220   0.0848319     0.69549    -5.95261  0.000230841
2230   0.0847782    0.695472    -6.29448  6.19981e-05
2240    0.083592    0.695077    -6.12394  9.44935e-05
2250   0.0828883    0.694843    -5.65391  -0.000221249
2260   0.0880169    0.696549    -5.78378  -0.000270152
2270   0.0882914    0.696641    -5.61307  0.000183756
2280   0.0843418    0.695327    -6.25322  0.000395511
2290   0.0803812    0.694009    -6.76581  2.9996e-05
2300   0.0837419    0.695127    -7.83474  -0.000116249
2310   0.0827061    0.694782     -6.4679  0.000413989
2320   0.0754621    0.692372    -6.50924  0.000332849
2330   0.0760491    0.692567    -7.10814  -0.000148852
2340   0.0784392    0.693362    -6.38259  -9.98944e-05
2350    0.078047    0.693232    -6.46799  0.000178794
2360   0.0748633    0.692173    -6.25356  0.000137925
2370   0.0752885    0.692314    -5.52771  -9.19409e-05
2380   0.0767021    0.692784    -6.51179  -0.000149792
2390   0.0782844    0.693311     -7.9649  1.48594e-05
2400   0.0764049    0.692686    -6.59735  0.000221312
2410   0.0738582    0.691838    -6.29774  8.94684e-05
2420   0.0746155     0.69209     -6.7681  0.000180997
2430   0.0702382    0.690634     -6.4689  0.000272374
2440   0.0691681    0.690278    -4.97262  0.000198597
2450   0.0662663    0.689312    -6.25443  0.000132488
2460   0.0665183    0.689396    -7.36658  4.97278e-05
2470   0.0652717    0.688981    -6.08435  -0.000250502
2480   0.0715283    0.691063    -5.61549  -1.68119e-05
2490    0.065608    0.689093    -6.98299  0.000358636
2500   0.0643556    0.688676    -6.93981  0.000108636
2510   0.0634352     0.68837    -7.83762  0.000150948
2520   0.0613367    0.687672    -8.09322  -4.18369e-05
2530    0.064272    0.688649     -6.4274  0.000202171
2540   0.0572932    0.686326    -6.12832  0.000404118
2550   0.0561896    0.685959    -6.04201  -8.33513e-05
2560   0.0589603    0.686881    -6.08535  -0.00025215
2570   0.0612326    0.687637    -6.55664  7.07619e-07
2580   0.0589461    0.686876    -6.89818  0.000144302
2590   0.0583466    0.686677    -6.08652  -7.74749e-06
2600   0.0591011    0.686928    -7.02742  -6.70947e-05
2610   0.0596885    0.687123    -7.92514  -2.47654e-05
2620   0.0595964    0.687093    -6.81424  0.000264438
2630   0.0543997    0.685364    -7.11257  9.4359e-05
2640   0.0577092    0.686465    -7.28519  -4.12904e-05
2650   0.0552255    0.685638    -7.11303  0.000180352
2660   0.0541021    0.685265    -6.94232  3.54864e-05
2670   0.0545158    0.685402    -6.60078  -0.000127096
2680   0.0566441     0.68611    -7.66987  0.000104301
2690   0.0524298    0.684708    -6.34484  0.000233027
2700   0.0519835     0.68456    -7.32708  -3.27548e-05
2710   0.0530848    0.684926    -6.64462  -6.91451e-06
2720   0.0521218    0.684606    -7.66966  -0.000153742
2730   0.0561597    0.685949     -7.3723  -0.000188378
2740   0.0558894    0.685859    -6.73073  0.000381744
2750   0.0485248    0.683409    -7.32733  0.000122438
2760   0.0534406    0.685045    -8.48236  -0.000249382
2770   0.0535124    0.685068    -8.09865  7.96968e-05
2780   0.0518467    0.684514    -8.48337  -0.000146371
2790   0.0564399    0.686042    -9.12494  4.5312e-05
2800   0.0509404    0.684213    -7.71397  0.000437258
2810   0.0476947    0.683133     -8.6114  -0.000137915
2820   0.0536987     0.68513    -8.18471  -0.000233833
2830   0.0523714    0.684689    -7.33021  0.00012414
2840   0.0512159    0.684304    -7.67179  0.00023849
2850   0.0476015    0.683102    -8.48391  0.000247779
2860   0.0462604    0.682655    -8.91081  6.39509e-05
2870   0.0463225    0.682676    -8.26998  7.30062e-05
2880   0.0448002     0.68217    -8.61177  -9.45292e-05
2890   0.0482131    0.683305    -8.61311  -0.000156268
2900   0.0479256    0.683209    -8.74081  -6.8474e-05
2910   0.0495826    0.683761    -7.88647  0.000347834
2920   0.0409689    0.680895    -8.14153  0.000108537
2930   0.0474118    0.683039    -7.54485  -0.000316503
2940    0.047299    0.683001    -7.58798  0.000376048
2950   0.0398909    0.680536    -8.56943  0.000260757
2960   0.0420838    0.681266     -7.2026  -9.46635e-05
2970   0.0417842    0.681166    -6.43345  -0.000175489
2980   0.0455936    0.682434    -6.43478  0.00014638
2990   0.0388566    0.680192     -5.5366  0.000387951
3000   0.0378346    0.679852    -7.37414  0.000165153
3010   0.0355535    0.679093    -7.45995  0.000120602
3020   0.0354226    0.679049    -7.41723  0.00011212
3030   0.0333111    0.678347    -7.33167  2.21858e-05
3040   0.0349788    0.678902    -6.90523  -0.000103817
3050   0.0353874    0.679038    -7.58932  0.000212113
3060   0.0307366     0.67749    -8.27194  0.000230429
3070   0.0307789    0.677504    -8.22989  -8.58232e-05
3080    0.032453    0.678061    -8.14491  -4.22755e-06
3090   0.0308634    0.677532    -7.63216  -4.07979e-05
3100    0.033269    0.678333    -7.41823  -0.000250027
3110   0.0358639    0.679196     -7.9319  1.36321e-05
3120   0.0329964    0.678242    -6.73436   7.718e-05
3130   0.0343203    0.678683    -7.88893  5.94547e-05
3140   0.0318073    0.677846     -6.9054  0.000251621
3150   0.0292879    0.677008    -7.33247  6.8904e-05
3160   0.0304292    0.677388    -6.86331  5.11426e-06
3170   0.0291856    0.676974    -7.50355  0.000234908
3180    0.025731    0.675825    -6.90473  -0.000215875
3190   0.0335031    0.678411    -7.59003  -0.000160343
3200   0.0289379    0.676892    -6.73461  -4.67543e-06
3210   0.0335966    0.678442    -8.31612  -0.000383294
3220   0.0366038    0.679442    -7.46221  -6.95847e-05
3230   0.0349883    0.678905    -8.31637  -1.44651e-05
3240   0.0368931    0.679539    -8.53018  -0.000274389
3250   0.0404761    0.680731    -8.65946  -0.000200648
3260    0.040906    0.680874    -8.40285  8.74445e-05
3270   0.0387272    0.680149    -8.06102  0.000460814
3280   0.0316898    0.677807    -8.40198  0.000190733
3290   0.0349126     0.67888     -7.8473  -0.00021978
3300   0.0360854     0.67927    -8.57381  0.000182556
3310   0.0312614    0.677665    -8.06073  0.000126254
3320   0.0335603     0.67843    -7.84718  0.000258813
3330   0.0260852    0.675942    -8.57223  0.000183568
3340   0.0298889    0.677208    -8.53059  -0.000418646
3350   0.0344581    0.678728    -7.29225  -0.000117584
3360   0.0322406     0.67799    -7.29208  0.000184249
3370   0.0307731    0.677502    -8.74594  6.16939e-05
3380   0.0310067     0.67758    -8.18993  6.19984e-05
3390   0.0295332     0.67709    -9.25811  0.000147598
3400   0.0280548    0.676598    -9.34404  -0.000137441
3410    0.032282    0.678004    -8.87539  -0.000270896
3420   0.0334727      0.6784    -8.36306  1.44113e-05
3430   0.0319938    0.677908    -9.60182  0.000301089
3440   0.0274509    0.676397    -8.10541  0.00032091
3450   0.0255755    0.675773     -9.2171  6.31986e-05
3460   0.0261869    0.675976    -9.08903  -4.20608e-05
3470   0.0264168    0.676053    -8.61933  8.27869e-05
3480   0.0245312    0.675425    -9.64529  0.000150321
3490   0.0234103    0.675052    -9.77336  1.57638e-05
3500   0.0242159     0.67532    -9.47421  0.000334883
3510   0.0167127    0.672824    -9.68684  0.000296557
3520   0.0182848    0.673347      -9.816  8.49455e-05
3530   0.0150138    0.672258    -10.1147  -7.05074e-05
3540   0.0196949    0.673816    -9.73181  -0.00016741
3550    0.018362    0.673373    -8.74811  0.000104337
3560   0.0176082    0.673122    -9.17567  0.000309535
3570   0.0121713    0.671313    -8.19227  9.51651e-05
3580   0.0157049    0.672488    -9.30441  -0.000119062
3590   0.0145525    0.672105    -9.00522  0.000125224
3600   0.0132004    0.671655    -8.74844  0.000253162
3610  0.00948928     0.67042    -9.43165  8.00733e-06
3620   0.0130403    0.671602    -9.81754  0.000146478
3630  0.00655972    0.669446    -7.93599  8.69697e-05
3640   0.0113009    0.671023    -8.57845  -0.000139071
3650  0.00934114    0.670371    -8.19318  0.000364503
3660  0.00401082    0.668597    -8.70597  0.000256395
3670  0.00421324    0.668665    -8.79191  -0.000109532
3680  0.00620145    0.669326    -8.79212  -0.000318447
3690   0.0105822    0.670784    -9.26324  4.90559e-05
3700  0.00522033       0.669    -10.2883  0.000207966
3710  0.00642286      0.6694    -9.51918  -3.05514e-05
3720  0.00583136    0.669203    -8.83538  0.000129281
3730  0.00383724     0.66854    -9.00672  0.000259834
3740  0.000634673    0.667474    -8.62137  7.99297e-05
3750  0.00223864    0.668008    -8.83564  -9.92404e-06
3760  0.000833154     0.66754    -8.62125   0.0003422
3770  -0.00460536     0.66573    -9.00588  0.000111063
3780  -0.00138811    0.666801    -8.23741  -2.93333e-05
3790  -0.0040187    0.665926    -7.76712  0.000273601
3800  -0.00686013     0.66498    -8.45041  0.000284635
3810  -0.00971141    0.664032    -8.10833  -0.000100082
3820  -0.00485848    0.665646    -7.76792  0.000184831
3830   -0.013408    0.662802    -9.00689  0.000459238
3840  -0.0140432     0.66259    -8.53606  -0.000334085
3850  -0.00672631    0.665025    -8.28113  -4.85454e-05
3860  -0.0130723    0.662913    -8.40815  0.000165036
3870   -0.010027    0.663926    -8.79362  -7.95715e-05
3880  -0.0114809    0.663443    -8.23778  0.000135381
3890  -0.0127347    0.663026    -8.02398  3.29966e-05
3900  -0.0121408    0.663223    -8.79362  1.2629e-05
3910  -0.0129872    0.662942    -7.98159  0.000229202
3920  -0.0167249    0.661698    -8.15234  0.000209103
3930  -0.0171693     0.66155    -8.19527  2.37443e-05
3940  -0.0171998     0.66154     -9.0076  -0.000204258
3950  -0.0130841    0.662909    -7.68352  0.000283489
3960  -0.0228695    0.659653    -8.15168  4.40581e-05
3970  -0.0139653    0.662616    -8.32384  -0.000308487
3980  -0.0166998    0.661706    -8.62271  0.000159134
3990   -0.017148    0.661557    -7.98201  0.00017033
4000  -0.0201064    0.660573    -8.23816  -7.01848e-05
4010  -0.0157443    0.662024    -7.93979  -0.000426385
4020  -0.0115787     0.66341    -6.27359  -0.000133625
4030  -0.0130718    0.662913    -7.98276  0.000349482
4040  -0.0185683    0.661084    -7.42679  0.000139483
4050  -0.0158614    0.661985     -6.5725  -0.000165547
4060  -0.0152574    0.662186    -7.17085  -1.8209e-05
4070  -0.0154973    0.662106    -7.51277  1.34619e-05
4080  -0.0155266    0.662097    -6.57262  -9.26035e-05
4090  -0.0136452    0.662723    -6.87266  0.000332464
4100  -0.0221759    0.659884     -7.5554  0.000130365
4110  -0.0162525    0.661855    -7.85527  -0.000561326
4120  -0.0109494     0.66362    -8.58295  -3.96872e-05
4130  -0.0154588    0.662119    -7.85598  0.000205521
4140  -0.0150598    0.662252     -8.7532  -0.000125752
4150  -0.0129437    0.662956    -8.79672  -4.01171e-05
4160  -0.0142575    0.662519    -8.79688  -7.27733e-05
4170  -0.0114882     0.66344    -8.75496  0.000207473
4180  -0.0184069    0.661138    -8.71082  0.000455601
4190  -0.0206003    0.660408    -10.0787  0.000295455
4200  -0.0243161    0.659172    -8.06983  0.00018801
4210  -0.0243605    0.659157    -9.26675  5.8756e-05
4220  -0.0254912    0.658781    -8.07037  0.000189309
4230  -0.0281467    0.657897     -8.7109  -7.15193e-05
4240  -0.0240608    0.659257     -8.7124  8.15419e-05
4250  -0.0297775    0.657355    -6.78851  0.000135605
4260  -0.0267729    0.658355    -7.81464  0.000301008
4270  -0.0357977    0.655352    -8.92504  0.000476435
4280  -0.0363016    0.655184    -8.45496  -0.000279047
4290  -0.0302167    0.657209    -8.92612  -0.000180415
4300  -0.0326933    0.656385    -7.51511  0.000215024
4310  -0.0345172    0.655778    -8.11359  -6.018e-05
4320  -0.0314897    0.656785    -8.19911  -0.000402873
4330  -0.0264598    0.658459    -9.95283  -0.000193644
4340  -0.0276168    0.658074    -9.78188  0.000371283
4350  -0.0338854    0.655988      -9.097  -1.70267e-05
4360  -0.0272762    0.658187    -9.52523  -0.000283319
4370   -0.028219    0.657873    -9.90995  0.000239512
4380  -0.0320665    0.656593    -10.3799  0.00026245
4390   -0.033468    0.656127    -9.73887  9.56308e-05
4400  -0.0339791    0.655957    -8.97026  -0.000262978
4410  -0.0282085    0.657877    -10.4667  -3.86035e-05
4420   -0.033207    0.656214    -8.88495  0.000410701
4430  -0.0364225    0.655144    -9.22616  0.000186739
4440  -0.0369418    0.654971    -8.92729  -6.09504e-05
4450  -0.0352035    0.655549     -9.5687  -0.000162824
4460  -0.0336853    0.656054    -8.92792  6.33955e-05
4470  -0.0364714    0.655127    -9.39782  2.91361e-05
4480   -0.034268    0.655861    -9.27038  0.000120755
4490  -0.0388865    0.654324    -8.92821  0.000325801
4500   -0.040784    0.653692    -8.58642  0.000167285
4510  -0.0422322    0.653211    -7.85965  0.000202296
4520    -0.04483    0.652346    -7.56008  0.000134127
4530  -0.0449147    0.652318    -6.96206  -0.000221231
4540  -0.0404054    0.653818    -7.98844  0.000169658
4550  -0.0483079    0.651189    -7.98798  0.000503511
4560  -0.0504756    0.650468    -7.98773  -0.000117817
4570  -0.0459515    0.651973    -7.98906  -0.000140826
4580   -0.047659    0.651405    -8.84369  0.000124731
4590  -0.0484462    0.651143    -8.88603  5.55852e-05
4600  -0.0487708    0.651035    -8.71537  -1.39905e-05
4610  -0.0481664    0.651236    -8.45918  0.000300829
4620  -0.0547873    0.649033    -9.09921  0.000406375
4630  -0.0562939    0.648532    -9.44083  -1.28618e-05
4640  -0.0545301    0.649119    -8.80018  -0.000129854
4650  -0.0536968    0.649396    -9.39945  -1.26306e-06
4660  -0.0545048    0.649127    -8.50244  0.000163344
4670  -0.0569636    0.648309    -8.03174  0.000199197
4680  -0.0584888    0.647801    -7.90342  9.37231e-05
4690  -0.0588381    0.647685    -8.28831  -4.78378e-05
4700   -0.057532     0.64812    -8.63018  9.44037e-05
4710  -0.0607262    0.647057    -8.58696  -0.000119438
4720  -0.0551433    0.648915    -8.50261  -0.000238061
4730   -0.055965    0.648641    -8.28876  0.00020158
4740  -0.0591749    0.647573    -7.47731  0.000285737
4750  -0.0616797     0.64674    -7.51962  -0.000215821
4760  -0.0548585    0.649009    -7.47761  0.00012002
4770  -0.0640801    0.645941    -6.83545  0.000407316
4780  -0.0630048    0.646299    -7.34858  -0.000204043
4790  -0.0599992    0.647299    -6.66541  0.000108932
4800  -0.0651834    0.645574    -8.11789  0.000313987
4810   -0.066279    0.645209    -7.86166  3.71076e-05
4820  -0.0659256    0.645327     -7.2636  -3.54148e-05
4830  -0.0655707    0.645445    -7.09247  0.000207599
4840  -0.0700775    0.643945     -7.4338  0.000329715
4850   -0.072165    0.643251    -7.73292  -0.000230125
4860   -0.065475    0.645477    -8.07592  -3.45193e-05
4870  -0.0714746    0.643481    -7.43384  0.000172354
4880  -0.0689221     0.64433    -8.54574  -0.000304788
4890  -0.0653788    0.645509    -8.16178  -4.76498e-05
4900  -0.0679691    0.644647     -6.5801  0.000271908
4910   -0.070817    0.643699    -7.30665  -6.0368e-05
4920  -0.0667618    0.645049    -7.00824  0.000187473
4930  -0.0745665    0.642452    -7.43518  0.000372949
4940  -0.0742207    0.642567    -7.47798  0.000176537
4950  -0.0780972    0.641277    -6.49495  0.000114628
4960  -0.0765133    0.641804     -6.3247  -0.000121328
4970  -0.0756706    0.642084    -5.98295  -0.00043423
4980  -0.0678287    0.644694    -6.19679  4.04935e-05
4990  -0.0764805    0.641815    -6.70896  0.000515217
