Time   Number   
ps   
0          24          28
10          22          29
20          23          32
30          25          27
40          22          29
50          26          30
60          20          27
70          25          26
80          22          32
90          21          31
100          25          28
110          24          31
120          25          32
130          24          32
140          22          37
150          27          29
160          24          29
170          28          28
180          27          28
190          23          31
200          23          25
210          21          32
220          24          28
230          25          29
240          30          25
250          25          25
260          25          24
270          22          26
280          22          29
290          29          21
300          23          31
310          27          28
320          24          26
330          26          27
340          26          25
350          27          28
360          27          24
370          26          30
380          24          32
390          26          25
400          24          32
410          24          29
420          23          30
430          26          25
440          25          29
450          27          26
460          28          26
470          26          30
480          27          23
490          28          27
500          26          29
510          27          31
520          27          30
530          23          25
540          26          26
550          24          29
560          23          33
570          27          27
580          26          25
590          27          28
600          23          34
610          25          26
620          26          32
630          26          29
640          27          31
650          26          26
660          24          27
670          25          30
680          27          30
690          26          27
700          24          26
710          23          31
720          24          31
730          26          25
740          27          29
750          23          29
760          24          31
770          24          28
780          25          29
790          28          30
800          26          30
810          23          31
820          27          22
830          26          31
840          26          32
850          28          26
860          26          29
870          26          32
880          23          29
890          25          29
900          27          28
910          23          31
920          25          29
930          25          33
940          24          31
950          23          28
960          26          32
970          22          35
980          27          26
990          23          32
1000          24          32
1010          27          26
1020          22          34
1030          21          32
1040          27          30
1050          25          30
1060          24          31
1070          24          29
1080          23          31
1090          24          34
1100          23          27
1110          22          33
1120          22          29
1130          28          29
1140          26          29
1150          27          27
1160          23          33
1170          20          33
1180          21          36
1190          23          34
1200          26          32
1210          26          33
1220          25          33
1230          23          36
1240          28          28
1250          26          28
1260          25          31
1270          24          29
1280          21          34
1290          27          31
1300          27          25
1310          25          31
1320          25          29
1330          23          30
1340          27          27
1350          24          32
1360          25          34
1370          24          38
1380          24          31
1390          28          28
1400          26          27
1410          26          32
1420          26          32
1430          25          27
1440          26          27
1450          25          33
1460          22          32
1470          25          28
1480          25          30
1490          24          35
1500          29          25
1510          24          33
1520          29          22
1530          23          26
1540          24          29
1550          24          25
1560          26          29
1570          27          30
1580          25          32
1590          23          28
1600          26          29
1610          24          34
1620          25          29
1630          26          30
1640          23          30
1650          22          31
1660          20          28
1670          24          24
1680          25          26
1690          24          32
1700          23          31
1710          22          30
1720          25          26
1730          27          27
1740          27          26
1750          25          26
1760          22          36
1770          23          36
1780          26          28
1790          24          31
1800          24          28
1810          22          30
1820          26          23
1830          24          32
1840          25          27
1850          26          31
1860          22          34
1870          20          34
1880          24          31
1890          26          31
1900          25          33
1910          27          33
1920          28          30
1930          27          34
1940          26          27
1950          27          27
1960          30          22
1970          26          28
1980          27          25
1990          26          28
2000          23          30
2010          28          25
2020          27          25
2030          23          29
2040          22          31
2050          23          29
2060          28          26
2070          23          29
2080          24          25
2090          24          27
2100          23          30
2110          25          26
2120          24          29
2130          26          26
2140          23          25
2150          27          28
2160          26          23
2170          21          30
2180          25          31
2190          23          27
2200          21          31
2210          26          28
2220          22          36
2230          25          25
2240          24          29
2250          25          27
2260          24          31
2270          27          24
2280          26          25
2290          25          30
2300          24          33
2310          28          29
2320          26          33
2330          25          30
2340          26          29
2350          28          27
2360          24          32
2370          23          31
2380          26          37
2390          26          31
2400          26          30
2410          24          30
2420          25          26
2430          23          27
2440          25          30
2450          26          23
2460          25          23
2470          26          25
2480          28          24
2490          25          27
2500          27          26
2510          23          29
2520          24          31
2530          26          30
2540          27          26
2550          26          26
2560          26          28
2570          24          27
2580          21          31
2590          21          34
2600          21          31
2610          22          28
2620          26          26
2630          23          34
2640          24          29
2650          27          28
2660          23          31
2670          25          25
2680          23          33
2690          27          27
2700          22          33
2710          25          31
2720          24          33
2730          22          35
2740          26          29
2750          28          28
2760          28          28
2770          31          24
2780          24          34
2790          25          29
2800          25          30
2810          27          29
2820          24          30
2830          24          31
2840          27          30
2850          26          30
2860          25          28
2870          27          25
2880          26          29
2890          29          26
2900          23          31
2910          29          26
2920          24          33
2930          27          25
2940          24          34
2950          22          36
2960          18          33
2970          25          30
2980          25          26
2990          28          27
3000          25          28
3010          25          27
3020          28          28
3030          22          24
3040          23          28
3050          25          25
3060          24          23
3070          27          23
3080          29          19
3090          23          24
3100          22          26
3110          27          25
3120          25          28
3130          28          25
3140          23          26
3150          23          25
3160          25          24
3170          22          31
3180          22          31
3190          25          23
3200          21          26
3210          21          25
3220          23          22
3230          20          26
3240          23          27
3250          23          26
3260          24          26
3270          20          25
3280          25          20
3290          23          25
3300          24          29
3310          21          27
3320          24          28
3330          22          26
3340          23          24
3350          21          24
3360          23          25
3370          23          24
3380          24          25
3390          25          24
3400          22          27
3410          23          30
3420          25          24
3430          24          28
3440          28          24
3450          23          29
3460          23          29
3470          25          25
3480          27          24
3490          24          25
3500          21          32
3510          23          27
3520          27          29
3530          23          29
3540          21          31
3550          23          31
3560          23          28
3570          23          30
3580          25          26
3590          24          25
3600          25          26
3610          26          28
3620          24          30
3630          29          28
3640          25          31
3650          24          26
3660          28          28
3670          22          27
3680          26          26
3690          25          30
3700          26          26
3710          23          32
3720          24          26
3730          25          25
3740          26          23
3750          27          28
3760          24          25
3770          22          26
3780          25          28
3790          26          25
3800          23          26
3810          20          35
3820          27          27
3830          27          25
3840          23          30
3850          21          29
3860          23          27
3870          24          33
3880          25          28
3890          24          26
3900          25          25
3910          26          27
3920          23          35
3930          26          28
3940          20          34
3950          24          31
3960          22          29
3970          22          30
3980          25          22
3990          22          33
4000          27          24
4010          22          28
4020          22          27
4030          23          26
4040          23          25
4050          25          25
4060          25          28
4070          22          32
4080          27          23
4090          25          22
4100          25          27
4110          24          29
4120          25          27
4130          21          30
4140          25          30
4150          21          30
4160          21          25
4170          25          26
4180          25          25
4190          25          28
4200          21          38
4210          26          27
4220          25          25
4230          25          31
4240          24          27
4250          26          25
4260          23          29
4270          22          28
4280          20          28
4290          22          29
4300          25          31
4310          24          26
4320          22          31
4330          23          28
4340          26          29
4350          28          27
4360          22          28
4370          26          26
4380          28          26
4390          25          29
4400          24          30
4410          26          29
4420          25          26
4430          26          27
4440          23          34
4450          26          32
4460          25          28
4470          28          27
4480          26          23
4490          25          30
4500          23          30
4510          24          29
4520          24          31
4530          22          35
4540          23          33
4550          26          24
4560          23          32
4570          23          29
4580          21          31
4590          27          28
4600          26          28
4610          27          30
4620          25          31
4630          28          30
4640          24          36
4650          21          36
4660          22          33
4670          25          27
4680          26          30
4690          23          34
4700          24          30
4710          23          28
4720          23          36
4730          21          39
4740          24          25
4750          21          35
4760          26          30
4770          25          33
4780          22          32
4790          23          30
4800          24          30
4810          24          33
4820          24          32
4830          26          29
4840          24          29
4850          21          36
4860          22          36
4870          24          35
4880          23          37
4890          25          30
4900          24          36
4910          20          28
4920          24          27
4930          22          27
4940          23          27
4950          25          22
4960          23          25
4970          23          27
4980          23          32
4990          22          26
5000          22          30
5010          19          30
5020          24          33
5030          22          28
5040          21          31
5050          21          31
5060          25          24
5070          23          32
5080          20          29
5090          22          31
5100          23          24
5110          22          28
5120          19          32
5130          24          31
5140          22          29
5150          23          31
5160          23          34
5170          22          26
5180          23          26
5190          24          25
5200          20          30
5210          23          29
5220          26          24
5230          23          28
5240          25          29
5250          25          24
5260          19          27
5270          26          30
5280          24          21
5290          20          30
5300          25          24
5310          20          29
5320          22          30
5330          24          29
5340          26          28
5350          24          26
5360          26          32
5370          26          32
5380          22          28
5390          24          30
5400          25          25
5410          22          27
5420          21          28
5430          25          26
5440          22          29
5450          24          26
5460          25          27
5470          24          23
5480          25          28
5490          21          33
5500          22          23
5510          22          27
5520          22          26
5530          23          33
5540          22          26
5550          24          26
5560          23          29
5570          21          29
5580          20          29
5590          23          23
5600          22          20
5610          24          20
5620          23          26
5630          23          24
5640          21          27
5650          24          26
5660          20          27
5670          24          34
5680          24          28
5690          22          33
5700          23          26
5710          21          29
5720          21          26
5730          19          30
5740          23          33
5750          25          30
5760          27          23
5770          22          29
5780          28          25
5790          22          31
5800          23          26
5810          23          24
5820          24          30
5830          24          23
5840          27          27
5850          22          26
5860          21          28
5870          25          24
5880          18          31
5890          23          33
5900          25          24
5910          26          27
5920          23          29
5930          22          28
5940          24          28
5950          28          28
5960          23          25
5970          22          29
5980          26          30
5990          23          29
6000          25          24
6010          25          25
6020          24          32
6030          19          31
6040          23          29
6050          25          28
6060          29          24
6070          22          34
6080          24          24
6090          21          25
6100          20          29
6110          24          24
6120          24          26
6130          24          22
6140          24          23
6150          20          28
6160          23          27
6170          21          28
6180          25          22
6190          20          25
6200          21          25
6210          24          23
6220          27          23
6230          24          29
6240          25          26
6250          21          26
6260          23          27
6270          22          22
6280          23          28
6290          24          30
6300          21          34
6310          19          27
6320          23          31
6330          19          29
6340          24          24
6350          20          35
6360          21          31
6370          20          29
6380          23          27
6390          23          27
6400          23          23
6410          23          26
6420          24          23
6430          22          28
6440          23          26
6450          24          27
6460          20          23
6470          25          23
6480          22          22
6490          23          27
6500          22          23
6510          23          26
6520          22          23
6530          22          26
6540          24          27
6550          22          23
6560          26          23
6570          20          27
6580          18          30
6590          23          27
6600          22          26
6610          19          33
6620          20          28
6630          20          34
6640          22          27
6650          25          28
6660          22          26
6670          25          27
6680          24          25
6690          22          27
6700          22          25
6710          21          28
6720          22          27
6730          23          26
6740          21          25
6750          24          28
6760          21          30
6770          20          29
6780          22          26
6790          23          25
6800          26          24
6810          23          24
6820          23          30
6830          23          30
6840          23          27
6850          23          30
6860          23          28
6870          26          23
6880          26          29
6890          25          26
6900          20          32
6910          23          28
6920          25          23
6930          26          27
6940          22          29
6950          23          24
6960          26          27
6970          23          25
6980          24          26
6990          23          32
7000          20          27
7010          26          26
7020          24          33
7030          25          27
7040          24          28
7050          25          30
7060          20          27
7070          25          24
7080          25          28
7090          24          30
7100          23          33
7110          25          28
7120          24          27
7130          26          24
7140          25          23
7150          21          30
7160          24          29
7170          28          26
7180          25          31
7190          21          32
7200          26          25
7210          29          22
7220          25          26
7230          23          30
7240          26          26
7250          26          29
7260          19          32
7270          19          30
7280          23          31
7290          25          25
7300          24          21
7310          29          20
7320          23          26
7330          28          25
7340          20          32
7350          23          27
7360          22          32
7370          24          30
7380          26          28
7390          22          26
7400          25          26
7410          20          30
7420          23          29
7430          23          26
7440          22          31
7450          21          26
7460          21          31
7470          20          31
7480          20          31
7490          19          30
7500          23          31
7510          22          29
7520          21          36
7530          20          31
7540          21          29
7550          25          25
7560          25          28
7570          22          33
7580          25          28
7590          21          31
7600          24          27
7610          27          28
7620          22          34
7630          24          27
7640          22          25
7650          21          29
7660          24          28
7670          22          32
7680          25          27
7690          26          28
7700          25          27
7710          22          29
7720          20          32
7730          21          31
7740          26          25
7750          23          33
7760          21          32
7770          25          30
7780          23          28
7790          24          29
7800          23          30
7810          22          27
7820          27          22
7830          21          36
7840          24          32
7850          23          32
7860          19          37
7870          23          39
7880          23          33
7890          24          30
7900          23          31
7910          24          37
7920          19          36
7930          22          33
7940          25          32
7950          25          38
7960          23          34
7970          23          37
7980          25          28
7990          22          33
8000          21          38
8010          22          32
8020          22          34
8030          22          30
8040          21          31
8050          25          29
8060          22          33
8070          26          26
8080          24          31
8090          25          27
8100          22          35
8110          24          33
8120          25          27
8130          23          28
8140          23          26
8150          23          27
8160          25          23
8170          22          27
8180          26          23
8190          25          27
8200          24          27
8210          26          29
8220          22          34
8230          24          28
8240          20          32
8250          25          29
8260          23          27
8270          21          28
8280          24          26
8290          24          31
8300          23          32
8310          24          33
8320          24          29
8330          24          23
8340          19          31
8350          21          29
8360          22          34
8370          24          28
8380          21          29
8390          20          32
8400          21          32
8410          21          35
8420          21          29
8430          20          31
8440          22          29
8450          22          35
8460          21          35
8470          22          37
8480          26          25
8490          25          27
8500          24          32
8510          24          28
8520          22          34
8530          19          34
8540          18          40
8550          20          34
8560          24          27
8570          24          30
8580          19          30
8590          25          25
8600          24          27
8610          23          31
8620          23          32
8630          20          33
8640          24          33
8650          23          28
8660          24          29
8670          23          29
8680          21          26
8690          22          31
8700          21          32
8710          26          29
8720          20          28
8730          23          28
8740          23          28
8750          22          32
8760          21          35
8770          25          32
8780          25          21
8790          26          28
8800          27          27
8810          26          26
8820          23          27
8830          27          26
8840          27          30
8850          22          29
8860          24          31
8870          27          27
8880          24          26
8890          27          30
8900          22          35
8910          26          28
8920          28          26
8930          26          31
8940          23          27
8950          24          29
8960          24          33
8970          23          37
8980          25          25
8990          24          28
9000          27          25
9010          25          30
9020          26          25
9030          27          21
9040          27          22
9050          22          32
9060          21          30
9070          26          28
9080          25          30
9090          22          35
9100          23          32
9110          22          36
9120          24          30
9130          23          32
9140          23          33
9150          22          31
9160          26          30
9170          26          26
9180          24          31
9190          22          31
9200          27          31
9210          25          25
9220          25          28
9230          23          27
9240          29          22
9250          25          23
9260          25          24
9270          25          24
9280          24          25
9290          24          26
9300          26          22
9310          27          22
9320          27          26
9330          24          27
9340          27          24
9350          25          33
9360          25          25
9370          24          29
9380          24          29
9390          21          26
9400          24          32
9410          25          23
9420          23          23
9430          26          29
9440          25          31
9450          28          29
9460          26          25
9470          23          31
9480          25          26
9490          28          28
9500          28          26
9510          27          30
9520          26          34
9530          24          34
9540          29          29
9550          25          29
9560          26          27
9570          26          30
9580          27          26
9590          26          30
9600          24          30
9610          25          33
9620          20          38
9630          22          29
9640          24          36
9650          24          26
9660          23          31
9670          26          25
9680          25          28
9690          23          31
9700          23          33
9710          28          23
9720          26          28
9730          25          33
9740          21          31
9750          22          28
9760          24          34
9770          24          35
9780          27          30
9790          23          35
9800          24          29
9810          25          31
9820          23          33
9830          23          32
9840          24          33
9850          24          28
9860          24          28
9870          26          23
9880          25          27
9890          24          31
9900          23          27
9910          22          34
9920          24          29
9930          28          26
9940          27          27
9950          26          32
9960          25          24
9970          25          37
9980          24          33
9990          25          36
10000          21          34
