Time   C(t)   
ps   
0           1           1  1.27148e-09   0.0380448
10    0.626038    0.685846    0.888692   0.0209287
20    0.581427     0.64837    0.480721  0.00381256
30    0.549786    0.621789      2.9795  0.00291792
40    0.523068    0.599344      2.7345  0.00210026
50    0.507781    0.586502       4.584  0.00185067
60    0.486055    0.568251      4.5829   0.0019201
70    0.469379    0.554242      4.7402  0.00161262
80    0.453802    0.541156     4.81972  0.00149305
90    0.439518    0.529157     2.56547  0.00140625
100    0.425678     0.51753     5.14125  0.00114392
110     0.41664    0.509937     2.23898  0.00101372
120    0.405403    0.500498      2.7197  0.00113428
130    0.393954     0.49088     5.13692  0.000785068
140    0.389702    0.487307     4.73037  0.000730011
150    0.379354    0.478614     3.60194  0.000812095
160     0.37346    0.473663     3.27845  0.000842538
170    0.362503    0.464459     3.11611  0.000748616
180    0.358488    0.461085     4.56496  0.00068842
190    0.348735    0.452892     3.67886  0.000799459
200    0.342498    0.447653     4.88735  0.000705612
210    0.334622    0.441037     3.83931  0.000687809
220    0.328742    0.436097     1.82401  0.000689281
230    0.320837    0.429456     6.17339  0.000556251
240    0.317617    0.426751     3.35285  0.000538437
250    0.310068     0.42041     1.90069  0.000486408
260    0.307889    0.418579  -0.0332068  0.000319207
270    0.303684    0.415046    -1.16139  0.000396849
280    0.299952    0.411911     1.41619  0.000470048
290    0.294283    0.407149     3.02817  0.000524053
300    0.289471    0.403107     2.22128  0.000515506
310    0.283973    0.398488     1.09364  0.000487487
320    0.279721    0.394916     1.17402  0.000309351
330    0.277786     0.39329     1.49398  0.000421622
340    0.271289    0.387832     1.25299  0.000431982
350    0.269146    0.386032    0.123937  0.000233921
360     0.26661    0.383902     1.16922  0.000467812
370     0.25979    0.378172  -0.0384797  0.000478281
380    0.257045    0.375866    -1.40994  0.000299186
390    0.253806    0.373146    -2.45735  0.000524206
400    0.246561    0.367059    -2.53632  0.000456718
410    0.244672    0.365472    -2.53687  0.00017929
420    0.242975    0.364047    -1.41041  0.000248177
430    0.239708    0.361303    -3.82802  0.000356394
440    0.235847    0.358059    -2.13676  0.000362015
450    0.232468     0.35522    -3.66773  0.000161511
460    0.232617    0.355345     2.13114  0.000162046
470    0.229227    0.352498    0.358947  0.000290108
480    0.226815    0.350471    0.841163  0.000399143
490    0.221244    0.345791   -0.850409  0.000355425
500    0.219706    0.344499    -2.54285  0.000341552
510    0.214413    0.340053    -1.09171  0.000302591
520    0.213654    0.339415    -1.17351  0.000105622
530    0.212301    0.338278    0.276518  0.000175122
540    0.210152    0.336473   0.0355282  0.000125916
550    0.209782    0.336163    -1.25468   0.0001213
560    0.207726    0.334435    -1.33467  8.66875e-05
570    0.208049    0.334706   -0.853872  0.000265998
580    0.202406    0.329966     1.24323  0.000350856
590    0.201032    0.328811   -0.127203  0.000147557
600    0.199455    0.327487   0.0344273  5.80795e-05
610     0.19987    0.327836    -1.09494  0.000103225
620     0.19739    0.325752    -2.22336  0.000223271
630    0.195405    0.324084    0.193854  9.86926e-05
640    0.195416    0.324094     1.24008  5.39057e-05
650    0.194326    0.323179  -0.0494179  0.000174312
660     0.19193    0.321166   -0.934333  0.000144499
670    0.191436    0.320751    -1.17674  3.9392e-05
680    0.191142    0.320504    -0.85576  0.000150175
690    0.188433    0.318228   -0.613983  0.000195674
700    0.187229    0.317216   -0.533759  0.000120546
710    0.186022    0.316202    -2.95042  8.04275e-05
720     0.18562    0.315865   -0.130509  0.000126123
730      0.1835    0.314083     2.20475  8.07934e-05
740    0.184004    0.314507     1.48021  1.02207e-05
750    0.183295    0.313912   -0.697121  0.000299089
760    0.178023    0.309482    0.350999  0.000360389
770    0.176087    0.307857    -1.82554  0.000137839
780    0.175266    0.307166   -0.052408  9.7511e-05
790    0.174137    0.306218    0.188581  0.000199524
800    0.171275    0.303814    -1.82515  7.75456e-05
810    0.172586    0.304915    -1.98851  7.7939e-05
820    0.169716    0.302505     -1.7476  0.000180037
830    0.168986    0.301891    0.266446  0.000252141
840    0.164674    0.298268    -2.79375  0.000232015
850    0.164345    0.297992    -1.66635  1.23933e-05
860    0.164426     0.29806   -0.619729  6.37487e-05
870     0.16307    0.296921   -0.378187  4.84034e-05
880    0.163458    0.297247     -1.9097  -2.33665e-05
890    0.163538    0.297314    0.669145  5.8908e-05
900     0.16228    0.296257    -1.91057  3.83534e-05
910     0.16277    0.296669   -0.298513  6.94819e-05
920     0.16089     0.29509    0.346357  0.000121143
930    0.160348    0.294634    -2.31287  0.000147335
940    0.157943    0.292614    -2.95829  0.000209641
950    0.156155    0.291112    -0.21758  0.000142793
960    0.155087    0.290215   -0.700818  0.000179464
970    0.152566    0.288097    -1.26538  0.000231712
980    0.150453    0.286322    -2.55512  0.000149081
990    0.149584    0.285592    -2.47443  0.000154682
1000    0.147359    0.283723    -3.11992  0.000175773
1010    0.146068    0.282639   -0.702864  0.00021794
1020    0.143001    0.280061    0.909191  0.000181797
1030    0.142432    0.279584    0.263613  0.000130075
1040    0.140399    0.277876    -1.91199  0.000219244
1050    0.138048    0.275901    -1.75169  0.000282557
1060    0.134748    0.273129    -3.84541  0.000199226
1070    0.134063    0.272553    -3.84525  0.000152586
1080    0.131696    0.270565    -1.58967  0.000194882
1090    0.130165    0.269279    -2.79926  5.32672e-05
1100    0.130631     0.26967    -1.75067  -1.49846e-05
1110    0.130465    0.269531    -2.39648  0.000232843
1120    0.125974    0.265758   -0.623348  0.000185589
1130    0.126753    0.266413   -0.947159  5.4156e-05
1140    0.124891    0.264848    0.260465  0.000286998
1150    0.121013    0.261591    0.745514  0.000345801
1160    0.117975    0.259038    0.664424  0.000357246
1170    0.113869    0.255588    -1.18964  0.000299592
1180    0.111983    0.254005    -1.02817  0.000210006
1190    0.109668     0.25206   -0.947789  0.000210465
1200    0.107774    0.250468    -1.67343  0.00017367
1210    0.106195    0.249142   -0.627282  0.000147407
1220    0.104826    0.247992   -0.225055  0.000286608
1230    0.100463    0.244327    -2.07723  0.000249667
1240   0.0998323    0.243797    -1.03077  0.00011665
1250   0.0981298    0.242367    -1.91655  0.000138268
1260    0.097067    0.241474    -1.67461  0.000143987
1270   0.0952501    0.239948    -3.12583  6.90896e-05
1280   0.0956852    0.240313    -3.28754  7.4742e-05
1290   0.0937553    0.238692    -2.96577  0.000263213
1300   0.0904209    0.235891    -1.11115  0.000231398
1310   0.0891273    0.234804    -1.83758  0.000151109
1320   0.0873987    0.233352   -0.145775  0.000178445
1330   0.0855584    0.231806   -0.629801  0.000243741
1340   0.0825239    0.229257   -0.548395  0.000119704
1350   0.0831643    0.229795    -1.51558  0.000185243
1360   0.0788191    0.226144    -1.11288  0.000321072
1370   0.0767429      0.2244    -2.07999  0.000137206
1380   0.0760749    0.223839   -0.467697  3.42503e-05
1390   0.0760579    0.223825   -0.468878  0.000116069
1400   0.0737536    0.221889   -0.468486  0.000148905
1410   0.0730798    0.221323    0.900929  -0.000129041
1420   0.0763344    0.224057     3.23564  -6.89905e-05
1430   0.0744596    0.222482     1.38425  0.000182222
1440   0.0726899    0.220996     1.94897  7.31014e-05
1450   0.0729976    0.221254     2.35049  3.50133e-05
1460   0.0719897    0.220407     2.51204  -8.90642e-06
1470   0.0731757    0.221404    0.900299  -0.000118756
1480   0.0743648    0.222403   -0.228911  -6.94983e-05
1490   0.0745657    0.222571   -0.148687  -3.66513e-05
1500   0.0750978    0.223018    0.576487  -3.12086e-05
1510   0.0751898    0.223096   -0.471396  -6.99613e-05
1520    0.076497    0.224194     1.13877  0.000134529
1530   0.0724993    0.220835    0.818107  0.000272934
1540   0.0710384    0.219608   -0.954005  0.000124087
1550   0.0700175    0.218751    -2.56638  8.0011e-05
1560   0.0694381    0.218264   -0.713409  8.00714e-06
1570   0.0698574    0.218616   -0.391801  -3.04207e-06
1580    0.069499    0.218315   -0.875432  1.36051e-05
1590   0.0695853    0.218387   -0.874094  -0.000131298
1600   0.0721249    0.220521    -1.51952  -0.000125884
1610   0.0721029    0.220502    -1.35938  -2.57395e-05
1620   0.0726397    0.220953   0.0917526  -6.49307e-05
1630   0.0734016    0.221593    -2.48686  -2.02525e-05
1640   0.0730448    0.221294    -2.56913  4.69357e-05
1650   0.0724628    0.220805     -2.6488  -0.000138287
1660   0.0758105    0.223617    -3.13401  -0.000115891
1670   0.0747807    0.222752     -2.8916  5.80788e-05
1680   0.0746489    0.222641    -2.16588  -3.19123e-05
1690   0.0754189    0.223288      -3.214  -9.36911e-06
1700   0.0748363    0.222799    -2.40687  -1.51064e-05
1710    0.075721    0.223542    -2.32712  5.28164e-05
1720     0.07378    0.221911    -2.97073   7.542e-05
1730   0.0742126    0.222275    -2.48788  -3.63253e-06
1740   0.0738526    0.221972    -1.03785  4.74084e-05
1750   0.0732645    0.221478    0.412654  2.04071e-06
1760   0.0738118    0.221938    -1.52156  -6.04857e-05
1770   0.0744742    0.222494    0.574047  -6.63295e-05
1780   0.0751384    0.223053    0.895813  1.90791e-05
1790   0.0740926    0.222174     -1.1191  0.000110417
1800   0.0729301    0.221197     1.37976  -4.37297e-05
1810   0.0749672    0.222909    -1.92481  -3.7922e-05
1820   0.0736885    0.221834    -1.03887  3.05824e-05
1830   0.0743556    0.222395    -1.76405  7.67019e-05
1840   0.0721545    0.220546    -1.76326  9.96921e-05
1850   0.0723617     0.22072    0.331799  7.13102e-05
1860   0.0707283    0.219348   -0.152148  -6.68805e-05
1870   0.0736993    0.221844  -0.0717658  -0.000239795
1880   0.0755242    0.223377   -0.959828  6.56087e-05
1890   0.0723871    0.220741     1.13625  0.000169546
1900   0.0721332    0.220528    0.975173  0.00013541
1910   0.0696789    0.218466     1.70192  0.000141401
1920   0.0693052    0.218152   -0.957939  -1.48103e-05
1930   0.0699751    0.218715      1.2978  2.58897e-05
1940   0.0687874    0.217717      2.4256  0.000136384
1950   0.0672475    0.216424    0.572631  0.000119228
1960   0.0664029    0.215714   0.0891564  7.29024e-05
1970   0.0657894    0.215199    0.249921  -6.12203e-05
1980   0.0676273    0.216743     1.29615  -0.000172306
1990   0.0692355    0.218094     1.94047  7.89829e-05
2000   0.0660476    0.215416   -0.153564  9.64671e-05
2010   0.0673062    0.216473   -0.557365  8.95709e-06
2020   0.0658685    0.215265   -0.960536  -8.52283e-05
2030   0.0690108    0.217905   -0.720176  -7.92615e-05
2040   0.0674537    0.216597   -0.156476  0.000120543
2050   0.0665999     0.21588    0.084593  4.42091e-05
2060   0.0665695    0.215854   -0.800243  4.43816e-05
2070   0.0657123    0.215134   -0.639478  7.99127e-05
2080   0.0649713    0.214511     2.90593  -1.46244e-05
2090   0.0660048     0.21538  -0.0764084  -8.56757e-05
2100   0.0666848    0.215951    -1.04234  5.06181e-05
2110   0.0649924    0.214529     1.37457  5.05853e-05
2120   0.0656731    0.215101    0.327314  -2.64935e-05
2130   0.0655223    0.214974  0.00452486  -9.81215e-05
2140   0.0676355     0.21675    0.567123  -6.24314e-05
2150   0.0667709    0.216023    0.325504  5.07195e-05
2160   0.0666211    0.215897     1.85686  -6.87376e-05
2170   0.0681456    0.217178     1.93724  -4.48409e-05
2180   0.0675179    0.216651     1.69539  3.88686e-05
2190   0.0673683    0.216525     3.30752  3.29964e-05
2200    0.066858    0.216096     3.54899  2.10229e-05
2210   0.0669478    0.216172     3.78903  0.000153553
2220    0.063787    0.213516     3.54812  9.94924e-05
2230    0.064958      0.2145    0.888967  -5.6893e-05
2240   0.0649248    0.214472     1.21105  6.97903e-05
2250   0.0635622    0.213328     1.77498  0.000184851
2260   0.0612278    0.211367     1.21223  2.77389e-05
2270   0.0630074    0.212862     2.49976  -8.1124e-05
2280   0.0628503     0.21273     2.82295  3.58634e-06
2290   0.0629357    0.212801    0.725449  3.40242e-05
2300   0.0621698    0.212158     1.04902  0.000155861
2310   0.0598184    0.210183     1.21026  0.000101277
2320   0.0601443    0.210456   0.0821529  4.06617e-05
2330   0.0590052    0.209499   0.0816811  0.000101807
2340   0.0581081    0.208746     1.45243  4.08621e-05
2350    0.058188    0.208813   0.0817588  4.71698e-05
2360   0.0571647    0.207953     1.04887  3.49494e-05
2370    0.057489    0.208226   0.0826251  8.43026e-05
2380   0.0554787    0.206537    -1.12681  0.000238216
2390   0.0527246    0.204223    -1.52927  7.85707e-05
2400   0.0539072    0.205217    0.645774  -7.52164e-05
2410    0.054229    0.205487     1.37055  1.10321e-05
2420   0.0536866    0.205031     1.04808  0.000122356
2430   0.0517818    0.203431     0.32267  0.000271278
2440    0.048261    0.200474   -0.966359  6.09841e-05
2450   0.0505622    0.202407    0.401715  -5.02829e-05
2460   0.0492667    0.201318    0.885505  0.000148384
2470   0.0475945    0.199914    0.562323  0.000154973
2480   0.0461672    0.198715     2.01361  9.30315e-05
2490   0.0457339    0.198351     1.77097  0.000105847
2500   0.0440503    0.196936      1.1276  4.35159e-05
2510   0.0448635     0.19762     0.56248  0.00016903
2520   0.0406697    0.194096     1.44968  0.000137793
2530   0.0421077    0.195304     1.04666  -1.2139e-05
2540   0.0409125      0.1943    0.240479  0.000100813
2550   0.0400914    0.193611   -0.647269  0.000107401
2560   0.0387645    0.192496    0.562638  0.000139182
2570   0.0373078    0.191272  -0.0010621  5.74917e-05
2580   0.0376146     0.19153    0.884876  3.87993e-05
2590   0.0365318     0.19062     1.52919  0.000159059
2600   0.0344334    0.188858    0.642785  9.60479e-05
2610   0.0346109    0.189007     2.01314  3.30079e-05
2620   0.0337733    0.188303     1.93237  4.57348e-05
2630   0.0336962    0.188238    0.723639  -6.22792e-05
2640   0.0350189    0.189349    0.964943  -5.59777e-05
2650   0.0348157    0.189179     1.68972  1.39607e-05
2660   0.0347397    0.189115     2.17359  3.3178e-05
2670   0.0341522    0.188621     1.28647  3.96276e-05
2680   0.0339471    0.188449     1.44779  -3.71292e-05
2690   0.0348947    0.189245     1.28553  0.000174579
2700   0.0304555    0.185516     2.33404  9.75939e-05
2710   0.0329429    0.187605     3.78187  -4.96336e-05
2720   0.0314482     0.18635     4.34777  7.23613e-05
2730   0.0314956     0.18639     3.38004  -3.05563e-05
2740   0.0320593    0.186863     2.65431  8.16211e-06
2750   0.0313324    0.186252     3.78344  0.000156882
2760   0.0289217    0.184227     1.93118  6.64972e-05
2770   0.0300024    0.185135     3.78376  -1.74055e-05
2780   0.0292698     0.18452     1.84962  9.9356e-05
2790   0.0280153    0.183466     1.68862  -1.74941e-05
2800   0.0296197    0.184814     1.92969  -1.08371e-05
2810   0.0282321    0.183648     3.05756  1.97161e-06
2820   0.0295802     0.18478     4.26629  -7.62123e-05
2830   0.0297563    0.184928     3.13692  -1.10942e-05
2840   0.0298021    0.184967     2.25114  5.43697e-05
2850   0.0286689    0.184015     3.94311  2.16395e-05
2860   0.0293693    0.184603     3.94232  -6.3566e-05
2870   0.0299402    0.185083     3.54033  4.80691e-05
2880    0.028408    0.183796     3.70172  0.000120523
2890   0.0275298    0.183058     3.29824  0.000134107
2900   0.0257258    0.181543       3.298  -4.31566e-06
2910   0.0276161     0.18313     4.42587  -3.05245e-05
2920   0.0263363    0.182055     4.34518  8.91332e-06
2930   0.0274378    0.182981     5.39259  6.21753e-05
2940   0.0250928    0.181011     5.79552  4.88257e-05
2950   0.0264613     0.18216     6.36017  -0.000103788
2960   0.0271685    0.182755      6.8416  6.24272e-05
2970   0.0252128    0.181112     5.95574  9.57747e-05
2980   0.0252531    0.181145     6.19696  1.60138e-05
2990   0.0248925    0.180842     4.34321  0.000196685
3000   0.0213194    0.177841     5.63366  -2.40917e-05
3010   0.0253743    0.181247     4.50468  -0.000130973
3020   0.0239388    0.180041     5.39101  0.00017063
3030   0.0219617     0.17838     4.50429  0.000137434
3040   0.0211901    0.177732     4.66529  0.000117701
3050   0.0196077    0.176403     5.55091  0.000178726
3060   0.0176156    0.174729     6.11548  0.000280592
3070   0.0139959    0.171689     4.98682  0.000233901
3080   0.0129376      0.1708     6.03423  4.30858e-06
3090   0.0139097    0.171616     6.03431  2.4835e-05
3100   0.0124409    0.170382     5.38936  7.91133e-05
3110   0.0123274    0.170287     4.50358  9.98677e-05
3120   0.0104436    0.168704     4.50397  4.5491e-05
3130   0.0114176    0.169523     5.30945  -6.34108e-05
3140   0.0117118     0.16977     4.90667  4.72362e-06
3150   0.0113231    0.169443     7.40412  4.5773e-05
3160   0.0107963    0.169001     5.63066  -3.63878e-05
3170   0.0120509    0.170055     4.90471  2.54416e-05
3180   0.0102875    0.168573     3.61583  -6.41132e-05
3190   0.0133332    0.171132     2.72864  -0.000105273
3200    0.012393    0.170342     4.17922  0.000170037
3210  0.00993242    0.168275     3.29233  4.60763e-05
3220   0.0114714    0.169568     3.05111  -0.000154118
3230   0.0130148    0.170864     4.25936  6.71393e-05
3240   0.0101286     0.16844     4.58192  0.000157206
3250  0.00987066    0.168223      4.8233  0.000143979
3260  0.00724907    0.166021     3.77691  0.000102475
3270  0.00782115    0.166501     3.69543  -3.63824e-05
3280  0.00797672    0.166632     4.26015  -4.34998e-05
3290  0.00869115    0.167232     4.17756  7.52544e-05
3300  0.00647163    0.165368     5.46715  7.52544e-05
3310  0.00718606    0.165968     3.61347  -2.24643e-05
3320  0.00692092    0.165745     4.49854   0.0001038
3330  0.00511006    0.164224     3.85446  0.000132122
3340  0.00427848    0.163525      4.7404  7.62487e-05
3350  0.00358508    0.162943      4.3388  0.000147024
3360    0.001338    0.161055     5.86945  6.96448e-05
3370  0.00219219    0.161773     5.70829  1.34898e-05
3380   0.0010682    0.160828     5.38645  -0.000114164
3390  0.00447546    0.163691     4.57845  -7.86779e-05
3400  0.00264176     0.16215     5.14404  5.57169e-05
3410  0.00336112    0.162755     5.94968  7.03135e-05
3420  0.00123549    0.160969       3.291  0.000105959
3430  0.00124195    0.160974     5.22521  0.000199258
3440  -0.00274968    0.157621     4.33975  0.000113753
3450  -0.00103312    0.159063     3.77542  -5.0172e-05
3460  -0.00174624    0.158464     4.90266  5.70747e-05
3470  -0.00217461    0.158104     4.41911  -5.76672e-05
3480  -0.000592893    0.159433     5.06303  -1.45257e-05
3490  -0.0018841    0.158348      4.4987  0.000114911
3500  -0.00289112    0.157502     4.41942  2.86939e-05
3510  -0.00245798    0.157866     4.58066  2.16661e-05
3520  -0.00332444    0.157138      6.5144  0.000115734
3530  -0.00477266    0.155922     4.50012  -5.07059e-05
3540  -0.00231032     0.15799     3.85407  6.56165e-05
3550  -0.00608499    0.154819     4.25724  0.00013806
3560  -0.00507153    0.155671     5.22403  -0.00015977
3570  -0.00288959    0.157504     4.57893  7.61582e-06
3580  -0.00522385    0.155543     4.49776  8.03497e-05
3590  -0.00449659    0.156154     4.57869  0.000124752
3600  -0.0077189    0.153447     7.15738  3.68747e-05
3610  -0.00523408    0.155534      5.9485  -0.00023418
3620  -0.00303529    0.157381     5.38354  -5.84725e-05
3630  -0.00406463    0.156516     5.38464  0.000243013
3640  -0.00789555    0.153298     4.82031  8.12987e-05
3650  -0.00569061    0.155151     3.93327  3.77093e-05
3660  -0.00864973    0.152665     4.41737  0.000104001
3670  -0.00777062    0.153403     4.65805  -0.000132507
3680  -0.0059996    0.154891     5.70412  7.54767e-07
3690  -0.00778571    0.153391     6.02675  0.000126853
3700  -0.00853667     0.15276     5.78553  8.20116e-06
3710  -0.00794974    0.153253     5.70483  -7.37068e-05
3720  -0.00706254    0.153998      5.6228  4.55983e-05
3730  -0.0088617    0.152487     6.34852  0.000112872
3740  -0.00931998    0.152102     5.38181  -9.64886e-05
3750  -0.00693193    0.154108     5.70334  -5.90419e-05
3760  -0.00813914    0.153094     6.34954  3.82192e-05
3770  -0.00769631    0.153466     6.26782  9.87068e-05
3780  -0.0101133    0.151435     5.78592  0.00018176
3790  -0.0113315    0.150412     6.59045  -1.39625e-05
3800  -0.00983403     0.15167     6.91198  0.000107265
3810  -0.0134768     0.14861     8.28289  0.000228457
3820  -0.0144032    0.147831     8.36312  -7.42168e-05
3830  -0.0119925    0.149857     6.75138  -0.000135013
3840  -0.0117029      0.1501     7.39656  -3.66184e-05
3850  -0.0112601    0.150472     6.75185  -9.01189e-05
3860  -0.00990053    0.151614     6.67005  -0.00010563
3870  -0.00914752    0.152247     7.55748  6.99916e-05
3880  -0.0113004    0.150438     6.42945  0.000192639
3890  -0.0130003     0.14901     7.47671  2.43889e-05
3900  -0.0117881    0.150028     5.13971  -0.000213699
3910  -0.00872633      0.1526     6.34758  -0.000175733
3920  -0.00827347    0.152981     5.94503  3.95159e-05
3930  -0.00951664    0.151936     6.66997  9.36062e-05
3940  -0.0101456    0.151408      5.7031  1.65566e-05
3950  -0.00984778    0.151658     7.15376  -0.000107377
3960  -0.00799806    0.153212     8.12024  -0.000107608
3970  -0.00769562    0.153466     7.15329  -1.4743e-05
3980  -0.0077032     0.15346     7.31484  4.7529e-05
3990  -0.0086462    0.152668      7.1536  7.84011e-07
4000  -0.00771888    0.153447     6.75075  -0.000100708
4010  -0.00663205     0.15436     7.15345  -6.18773e-05
4020  -0.00648133    0.154486     5.54186  3.19852e-05
4030  -0.00727176    0.153822     7.47553  -7.27968e-06
4040  -0.00633574    0.154609      6.2668  8.58253e-06
4050  -0.00744341    0.153678     6.18516  8.44507e-06
4060  -0.00650464    0.154467     6.26601  -2.29539e-05
4070  -0.00698433    0.154064     6.66816  -5.47981e-05
4080  -0.00540868    0.155387     6.91025  5.61417e-05
4090  -0.00810716     0.15312     6.18547  0.00019886
4100  -0.00938588    0.152046     7.07102  -0.000110462
4110  -0.00589793    0.154976     6.50566  9.0464e-06
4120  -0.00956681    0.151894     6.10367  0.000160062
4130  -0.00909916    0.152287     7.23092  0.00015297
4140  -0.0126262    0.149324     6.10328  0.000249224
4150  -0.0140836      0.1481     6.50685  0.000162042
4160  -0.0158671    0.146602     5.29867  -4.63034e-05
4170  -0.0131576    0.148878     5.70003  -7.82717e-05
4180  -0.0143016    0.147917     6.98859  0.000146847
4190  -0.0160945    0.146411     7.23076  0.000147297
4200  -0.0172475    0.145442     6.02298  4.26998e-05
4210  -0.0169485    0.145693     6.74681  -4.61623e-05
4220  -0.0163243    0.146218     7.79446  9.17003e-05
4230  -0.0187825    0.144152     6.26412  -5.82701e-06
4240  -0.0162078    0.146315     7.79422  -0.000135736
4250  -0.0160678    0.146433     7.06905  2.67792e-05
4260  -0.0167433    0.145865     6.50598  8.40127e-05
4270   -0.017748    0.145021     5.94165  0.00011703
4280  -0.0190839    0.143899     6.10336  0.000150221
4290  -0.0207525    0.142498     5.61949  -3.00553e-05
4300  -0.0184828    0.144404     5.78018  -5.45036e-05
4310  -0.0196624    0.143413     7.06952  8.51771e-05
4320  -0.0201864    0.142973     6.18343  -1.35891e-05
4330  -0.0193906    0.143642     5.86182  -0.000154193
4340  -0.0171025    0.145564     5.77994  -0.000146316
4350  -0.0164643      0.1461     4.65215  -5.56326e-05
4360  -0.0159899    0.146498     4.81276  2.73388e-05
4370  -0.0170111    0.145641     6.10226  9.39797e-05
4380  -0.0178695    0.144919     6.02172  -3.09005e-05
4390  -0.0163931     0.14616     6.50433  -9.77206e-05
4400   -0.015915    0.146561      6.2631  -5.98393e-06
4410  -0.0162734     0.14626     5.85993  8.62476e-05
4420    -0.01764    0.145112     5.37701  1.91925e-05
4430  -0.0166572    0.145938     7.14951  3.63221e-05
4440  -0.0183664    0.144502     6.82775  -5.98747e-06
4450  -0.0165375    0.146038     6.50385  -3.95061e-05
4460  -0.0175763    0.145166     6.02022  2.44612e-06
4470  -0.0165864    0.145997     5.69791  -7.37272e-05
4480  -0.0161018    0.146404      4.3281  4.49597e-05
4490  -0.0174856    0.145242     5.61768  -3.16863e-05
4500  -0.0154681    0.146937     4.81134  -8.26832e-05
4510  -0.0158319    0.146631     5.53659  -1.48281e-05
4520  -0.0151715    0.147186     4.81095  -0.000203158
4530  -0.0117688    0.150044     5.13169  -0.000152182
4540  -0.0121278    0.149743     4.00389  5.31653e-05
4550  -0.0128321    0.149151     5.21309  5.33356e-05
4560  -0.0131946    0.148847     5.53494  -3.26965e-05
4570  -0.0121781    0.149701     3.76172  -3.26912e-05
4580  -0.0125407    0.149396     4.56712  0.000122893
4590   -0.014636    0.147636      4.4869  0.000218593
4600  -0.0169126    0.145723     5.85686  0.00019332
4610  -0.0185024    0.144388     5.13287  1.99916e-05
4620  -0.0173124    0.145387     4.48745  -0.000127944
4630  -0.0159435    0.146537     5.29253  2.01389e-05
4640  -0.0177152    0.145049     5.21254  0.000107461
4650  -0.0180927    0.144732      6.9845  0.000178162
4660  -0.0212784    0.142056        4.81  0.000275231
4670  -0.0235974    0.140108     4.72899  0.000170701
4680  -0.0246924    0.139188     4.16545  -0.000181359
4690  -0.0199702    0.143155     6.09817  -0.0001108
4700  -0.0224765    0.141049     6.01865  4.74731e-05
4710  -0.0209197    0.142357     5.85607  -1.40538e-05
4720  -0.0221954    0.141285     4.56712  8.33776e-05
4730  -0.0225872    0.140956     4.96966  -2.30728e-05
4740  -0.0217339    0.141673     5.13074  3.72855e-06
4750  -0.0226618    0.140894     4.40581  2.14453e-05
4760  -0.0221628    0.141313     3.68071  9.3302e-05
4770  -0.0245278    0.139326     4.56689  0.000102364
4780  -0.0242101    0.139593     3.03616  2.21051e-05
4790  -0.0249699    0.138955      3.6001  -3.19578e-05
4800   -0.023571     0.14013     3.92202  -1.38232e-05
4810  -0.0246935    0.139187     4.00248  9.43858e-05
4820  -0.0254587    0.138544     4.32535  -9.5467e-05
4830  -0.0227841    0.140791     3.76015  -0.000204422
4840  -0.0213702    0.141979     2.30949  -5.2575e-06
4850   -0.022679    0.140879     3.92194  3.09023e-05
4860  -0.0219883    0.141459     3.35808  -9.65933e-05
4870  -0.0207471    0.142502     4.16403  -0.000151807
4880  -0.0189521     0.14401     3.43823  -0.000106521
4890  -0.0186167    0.144292     2.79296  -8.87158e-05
4900  -0.0171778      0.1455     2.30917  -2.45476e-05
4910  -0.0181257    0.144704     2.06826  5.81035e-05
4920  -0.0183399    0.144524     2.55174  0.000150783
4930  -0.0211414    0.142171     2.39145  -7.10257e-05
4940  -0.0169194    0.145718     2.14802  -0.000144802
4950  -0.0182453    0.144604       1.101  -0.000173806
4960  -0.0134433    0.148638     2.87272  -0.000285627
4970  -0.0125328    0.149403    0.536197  4.87228e-05
4980  -0.0144177    0.147819     2.30886  0.000114077
4990  -0.0148143    0.147486     1.26137  0.000179431
