Time   Number   
ps   
0          16         122
10          15         119
20          14         120
30          14         120
40          15         119
50          11         123
60          15         115
70          10         116
80          13         121
90          14         122
100          13         123
110          15         125
120          14         120
130          15         123
140          11         119
150          12         118
160          16         118
170          15         127
180          13         121
190          13         129
200          11         121
210          13         117
220          12         126
230          16         120
240          16         122
250          12         122
260           9         121
270          13         115
280          10         126
290          12         122
300          13         117
310           9         119
320          14         120
330          14         120
340          13         117
350          12         122
360          14         118
370          13         121
380          15         113
390          13         121
400          13         121
410          14         122
420          14         120
430          14         124
440          15         121
450          13         119
460          13         117
470          11         117
480          10         114
490          12         120
500          17         119
510          13         115
520          11         121
530          14         116
540          11         119
550          13         119
560          11         115
570          13         119
580          13         117
590           9         119
600          15         113
610          13         117
620          10         120
630          11         123
640          13         117
650          11         121
660          12         118
670          12         116
680          16         118
690          14         126
700          15         123
710          17         121
720          11         121
730          14         122
740          15         117
750          15         121
760          11         113
770          17         119
780          13         121
790          13         125
800          15         125
810          17         115
820          14         116
830          16         118
840          16         114
850          11         123
860          14         122
870          14         122
880          15         121
890          14         126
900          15         121
910          15         125
920          14         124
930          13         117
940          15         115
950          15         113
960          13         121
970          14         124
980          12         124
990          12         122
1000          11         125
1010          14         128
1020          13         123
1030          14         120
1040          15         125
1050          16         122
1060          17         119
1070          14         120
1080          12         116
1090          13         123
1100          14         122
1110          15         127
1120          15         123
1130          16         126
1140          16         124
1150          16         124
1160          13         121
1170          15         129
1180          15         123
1190          16         122
1200          13         119
1210          13         121
1220           9         119
1230          12         118
1240          12         118
1250          13         117
1260          18         120
1270          16         120
1280           9         125
1290          11         121
1300          15         125
1310          16         118
1320          16         122
1330          13         125
1340          13         123
1350          16         126
1360          12         126
1370          10         118
1380          15         123
1390          13         117
1400          13         123
1410          16         124
1420          15         125
1430          14         122
1440          14         124
1450          14         114
1460          11         123
1470          14         120
1480          14         116
1490          14         120
1500          13         121
1510          11         117
1520          13         123
1530          15         119
1540          13         119
1550          13         117
1560          13         119
1570          11         113
1580          11         111
1590          11         119
1600           9         113
1610          10         120
1620          14         114
1630          10         112
1640           6         116
1650          11         117
1660           6         116
1670           6         122
1680           9         123
1690          14         118
1700          16         122
1710          14         126
1720          12         120
1730          13         125
1740          11         125
1750          13         119
1760          12         116
1770          15         123
1780          11         123
1790          12         122
1800          13         117
1810          13         121
1820          12         114
1830          14         116
1840           9         123
1850          15         115
1860          13         125
1870          15         127
1880          12         116
1890          13         119
1900          12         120
1910          12         116
1920          11         121
1930          12         122
1940          10         118
1950          10         118
1960          10         118
1970          17         115
1980          13         123
1990          15         113
2000          12         118
2010           9         117
2020          12         110
2030          10         118
2040          11         113
2050          10         114
2060          10         116
2070          10         124
2080          11         129
2090          13         125
2100          13         117
2110          12         120
2120          15         117
2130          12         124
2140          14         114
2150           8         116
2160          16         114
2170          12         112
2180          10         114
2190          10         112
2200          10         118
2210          10         114
2220           9         117
2230           7         109
2240           8         112
2250          11         107
2260           7         109
2270           9         109
2280           9         107
2290           7         109
2300           8         106
2310           9         117
2320           7         109
2330           9         111
2340           8         110
2350          12         108
2360           6         112
2370          11         115
2380           7         117
2390          13         117
2400          12         120
2410          12         112
2420          12         114
2430          13         119
2440           9         113
2450          11         115
2460          11         113
2470          10         110
2480          10         114
2490          10         116
2500          11         117
2510          10         112
2520           7         113
2530           8         114
2540           6         114
2550           9         113
2560          11         113
2570          10         112
2580          10         112
2590           9         115
2600          14         122
2610          11         115
2620          12         114
2630           7         109
2640          12         116
2650          13         113
2660          13         113
2670          11         113
2680          13         111
2690          19         115
2700          10         120
2710          11         111
2720          14         118
2730          12         114
2740          10         112
2750          13         115
2760           9         111
2770          12         116
2780           9         113
2790          11         111
2800          11         111
2810          13         111
2820          13         109
2830           9         115
2840          12         110
2850          10         106
2860           8         106
2870           9         113
2880          12         118
2890           8         118
2900           9         111
2910           6         114
2920           7         119
2930           8         114
2940          11         119
2950           8         114
2960          11         109
2970           9         113
2980          12         110
2990           5         117
3000          11         111
3010           8         112
3020           9         113
3030           6         110
3040          14         112
3050           8         116
3060           9         111
3070          12         118
3080           9         115
3090          10         118
3100           9         109
3110          11         119
3120           8         110
3130          10         116
3140          11         119
3150          15         117
3160          10         116
3170          15         113
3180          11         113
3190          10         116
3200          13         119
3210          11         111
3220           9         119
3230           8         110
3240           8         114
3250           9         113
3260          11         113
3270           7         115
3280          13         117
3290           9         115
3300          15         119
3310          18         122
3320          13         117
3330          13         119
3340          13         117
3350          12         114
3360          12         118
3370           9         115
3380          11         117
3390           9         117
3400           9         113
3410           9         125
3420           8         112
3430          11         113
3440           9         115
3450          11         113
3460           9         113
3470          11         115
3480          13         115
3490           7         115
3500          10         116
3510           9         115
3520          11         117
3530          15         111
3540          11         117
3550          11         117
3560          12         116
3570          13         113
3580          10         118
3590          12         120
3600          13         115
3610          17         123
3620          13         117
3630          14         116
3640          14         118
3650          15         111
3660           9         119
3670          11         119
3680          10         118
3690          14         112
3700          12         120
3710          10         120
3720          12         114
3730           9         121
3740           8         122
3750          12         116
3760          11         121
3770          10         114
3780          11         115
3790          15         115
3800          13         111
3810          13         115
3820          11         115
3830          11         117
3840          15         119
3850          14         118
3860          11         117
3870          17         119
3880          14         118
3890          12         116
3900          11         117
3910          12         114
3920          13         119
3930          14         120
3940          16         122
3950          13         119
3960          10         118
3970          10         122
3980          13         119
3990          14         112
4000          10         114
4010           9         113
4020           8         110
4030           9         111
4040           9         111
4050          10         116
4060           8         114
4070          13         113
4080          15         111
4090          12         110
4100          13         115
4110          12         110
4120          11         113
4130          12         112
4140          10         114
4150          10         116
4160          11         111
4170          10         116
4180          11         119
4190          10         114
4200          16         120
4210          16         120
4220          11         115
4230          10         116
4240          11         113
4250          12         116
4260          13         121
4270          13         119
4280          13         117
4290          14         120
4300          10         118
4310          12         122
4320          11         109
4330          13         115
4340          15         121
4350          14         116
4360          13         115
4370          12         120
4380          11         119
4390          11         115
4400          11         119
4410          11         115
4420           8         110
4430          10         114
4440          13         117
4450          12         114
4460          12         114
4470          12         116
4480          13         123
4490          13         119
4500          13         113
4510          10         118
4520          14         114
4530          14         112
4540          11         119
4550          10         120
4560          11         119
4570          12         120
4580          14         122
4590          13         119
4600          13         117
4610          12         114
4620          12         116
4630          11         113
4640          15         117
4650          12         114
4660          12         126
4670          14         118
4680          14         118
4690          16         124
4700          12         124
4710          14         124
4720          15         113
4730          14         122
4740          12         118
4750          13         121
4760          15         123
4770          12         126
4780          14         118
4790          16         118
4800          14         124
4810          16         128
4820          15         127
4830          14         128
4840          16         120
4850          13         127
4860          14         118
4870          14         122
4880          19         117
4890          19         125
4900          19         123
4910          16         128
4920          16         122
4930          15         123
4940          14         114
4950          14         120
4960          13         121
4970          15         121
4980          12         124
4990          14         128
5000          14         120
5010          14         122
5020          17         119
5030          13         121
5040          16         124
5050          14         122
5060          14         124
5070          13         121
5080          14         126
5090          14         122
5100          16         116
5110          14         116
5120          11         119
5130          11         117
5140          14         122
5150          11         117
5160          17         121
5170          14         118
5180          15         121
5190          11         119
5200          10         118
5210          15         123
5220          11         119
5230          12         116
5240          15         129
5250          12         120
5260          16         132
5270          13         119
5280          14         120
5290           9         117
5300          13         123
5310          14         114
5320          12         120
5330          12         116
5340          14         116
5350          12         114
5360          17         113
5370          10         114
5380          12         120
5390          10         112
5400          11         115
5410          15         121
5420          11         115
5430          12         120
5440          13         117
5450          12         114
5460          13         117
5470          13         123
5480          13         119
5490          15         119
5500          13         119
5510          12         122
5520          12         122
5530          11         115
5540          14         118
5550          14         120
5560          13         119
5570          13         125
5580          13         123
5590          10         116
5600          10         116
5610          11         113
5620          11         119
5630          13         121
5640          11         119
5650          11         119
5660           9         117
5670          11         119
5680          12         120
5690          14         120
5700          12         116
5710          12         118
5720          15         115
5730          12         118
5740          11         117
5750          10         116
5760          13         119
5770          10         120
5780          11         117
5790          11         115
5800          12         120
5810          14         116
5820          12         114
5830          12         116
5840          11         123
5850          13         119
5860          12         118
5870          11         119
5880          11         119
5890          13         119
5900          14         124
5910          13         117
5920          12         116
5930          11         115
5940           9         125
5950           9         117
5960          13         115
5970          12         118
5980           8         110
5990          12         122
6000          14         114
6010          13         113
6020          10         118
6030          14         124
6040          12         118
6050          13         117
6060          14         116
6070          12         116
6080          12         118
6090          11         121
6100          13         125
6110          13         123
6120          14         124
6130          13         123
6140          12         116
6150          10         122
6160          14         112
6170          14         124
6180          11         113
6190          10         118
6200          11         119
6210          13         113
6220          11         115
6230          13         123
6240          12         114
6250           8         114
6260          13         119
6270          10         122
6280          12         110
6290          14         114
6300          14         112
6310          11         121
6320          11         119
6330          10         120
6340          15         111
6350          12         116
6360          13         113
6370          10         116
6380          11         111
6390          11         117
6400          12         114
6410          10         112
6420          14         114
6430          11         111
6440          10         114
6450          13         113
6460          13         117
6470          12         118
6480          13         127
6490          15         117
6500          11         115
6510          11         117
6520          10         118
6530          13         121
6540          15         115
6550          14         114
6560          13         117
6570          12         118
6580          14         120
6590          14         124
6600          13         121
6610          15         121
6620          19         117
6630          17         123
6640          15         121
6650          10         114
6660          11         121
6670          12         114
6680          12         120
6690           9         117
6700          13         119
6710          15         117
6720          14         118
6730          12         122
6740          17         123
6750          14         120
6760          12         120
6770          15         119
6780          12         116
6790          13         119
6800          13         121
6810          12         124
6820          13         117
6830          14         122
6840          14         116
6850          13         115
6860          16         116
6870          15         115
6880          13         125
6890          12         118
6900          17         117
6910          12         118
6920          15         117
6930          14         116
6940          15         123
6950          12         120
6960          11         111
6970          11         123
6980          11         119
6990          12         122
7000          12         122
7010          17         121
7020          15         123
7030          14         126
7040          11         123
7050          12         118
7060          17         117
7070          13         123
7080          20         122
7090          12         118
7100          14         122
7110          16         116
7120          15         123
7130          11         117
7140          12         120
7150          16         118
7160          18         116
7170          17         121
7180          15         121
7190          15         125
7200          16         116
7210          14         134
7220          16         126
7230          13         123
7240          14         130
7250          18         122
7260          12         116
7270          11         115
7280          12         118
7290          13         113
7300          16         112
7310          11         117
7320          13         121
7330          15         113
7340          14         114
7350          13         115
7360          16         116
7370          12         114
7380          11         113
7390           9         113
7400          12         120
7410          15         119
7420          11         125
7430          12         114
7440          11         121
7450          10         120
7460          11         119
7470          10         118
7480          10         112
7490           7         113
7500          11         119
7510          10         116
7520           8         116
7530          11         119
7540          11         115
7550          14         118
7560          11         123
7570          13         125
7580          11         115
7590          11         117
7600          13         121
7610          14         116
7620          12         126
7630          15         119
7640          17         125
7650          11         117
7660          14         120
7670          15         121
7680          12         124
7690          23         111
7700          15         129
7710          15         121
7720          13         121
7730          14         124
7740          14         114
7750          13         119
7760          10         116
7770          11         127
7780          18         122
7790          14         116
7800           9         125
7810          15         113
7820          14         122
7830          13         121
7840          15         115
7850          15         125
7860          10         126
7870          13         119
7880          17         125
7890          16         120
7900           8         126
7910          13         123
7920          13         119
7930          11         113
7940          10         120
7950          12         120
7960           9         119
7970           9         117
7980          13         117
7990          12         114
8000          14         118
8010          11         119
8020           9         115
8030          10         120
8040          13         119
8050           9         119
8060          10         126
8070          11         111
8080           7         119
8090           9         113
8100          10         124
8110          14         120
8120          13         129
8130          16         120
8140          12         116
8150          11         119
8160          13         119
8170          10         132
8180           9         111
8190          10         116
8200           6         116
8210          12         114
8220          10         122
8230          10         116
8240          10         120
8250           9         117
8260          11         121
8270          10         116
8280          11         115
8290          13         111
8300          12         128
8310           9         123
8320          10         122
8330          10         122
8340          11         121
8350          14         122
8360          11         121
8370          13         123
8380          13         125
8390          18         124
8400           8         118
8410           9         123
8420          12         122
8430          11         127
8440          12         126
8450          17         125
8460          12         118
8470          14         126
8480          12         124
8490           9         123
8500          14         126
8510          13         125
8520          12         120
8530          11         117
8540          10         120
8550          14         116
8560          15         121
8570          11         119
8580          12         118
8590          11         121
8600          11         123
8610          10         120
8620          10         118
8630          10         112
8640          13         113
8650          10         118
8660          14         120
8670          11         123
8680          12         122
8690          10         126
8700          14         118
8710          15         127
8720          15         121
8730          14         126
8740          11         125
8750          15         121
8760          13         125
8770          14         126
8780          13         121
8790          12         128
8800          19         127
8810          16         130
8820          17         121
8830          14         126
8840          13         127
8850          19         127
8860          17         125
8870          17         125
8880          19         121
8890          15         123
8900          15         127
8910          17         127
8920          15         125
8930          17         137
8940          14         132
8950          16         122
8960          12         118
8970          12         122
8980          16         128
8990          14         128
9000          18         128
9010          19         131
9020          16         136
9030          17         137
9040          16         122
9050          17         125
9060          15         129
9070          18         124
9080          10         128
9090          15         125
9100          12         126
9110          14         128
9120          12         126
9130          11         127
9140          13         127
9150          14         130
9160          11         123
9170          12         128
9180          20         134
9190          13         127
9200          16         136
9210          15         125
9220          14         132
9230          15         117
9240          15         129
9250          16         132
9260          16         132
9270          21         127
9280          14         126
9290          16         130
9300          15         129
9310          20         140
9320          19         141
9330          16         126
9340          18         130
9350          14         136
9360          18         130
9370          18         130
9380          15         129
9390          17         133
9400          18         128
9410          17         135
9420          18         126
9430          17         125
9440          18         126
9450          16         122
9460          15         125
9470          15         133
9480          18         124
9490          22         130
9500          18         130
9510          17         131
9520          18         134
9530          15         135
9540          19         129
9550          16         126
9560          19         129
9570          17         123
9580          19         123
9590          13         131
9600          17         131
9610          14         128
9620          10         126
9630          15         129
9640          22         126
9650          18         138
9660          13         125
9670          14         126
9680          14         134
9690          14         132
9700          15         133
9710          12         124
9720          15         125
9730          13         125
9740          10         132
9750          15         125
9760          12         130
9770          12         130
9780          18         124
9790          13         127
9800          14         126
9810          19         129
9820          10         128
9830          14         136
9840          12         126
9850          12         118
9860          15         123
9870          12         124
9880          16         122
9890          16         132
9900          17         129
9910          17         125
9920          13         125
9930          16         118
9940          17         135
9950          21         131
9960          18         120
9970          15         129
9980          15         131
9990          14         120
10000          19         121
