Time   C(t)   
ps   
0           1           1  6.49483e-10     0.04705
10    0.548269    0.551703    0.622898   0.0281899
20    0.436202    0.440489   -0.167652  0.00932985
30    0.361672    0.366525   -0.279601  0.00649804
40    0.306241    0.311516   -0.253162  0.00502363
50    0.261199    0.266817  -0.0574031  0.00413703
60    0.223501    0.229405   -0.873138   0.0033798
70    0.193603    0.199735     1.05022  0.00266745
80    0.170152    0.176462   -0.947551  0.00209552
90    0.151693    0.158143    -2.27075  0.00176879
100    0.134776    0.141355    -1.90108  0.00156884
110    0.120316    0.127005    -2.20724  0.00132125
120    0.108351    0.115131    -1.53257  0.00106439
130   0.0990278    0.105879    -1.26401  0.000983933
140   0.0886722   0.0956017   -0.623542  0.000947091
150    0.080086   0.0870809    -1.19905  0.000737688
160   0.0739184   0.0809602   -0.388826  0.000641113
170   0.0672638   0.0743561   -0.220101  0.000598371
180    0.061951   0.0690838    -1.33816  0.000548764
190   0.0562885   0.0634643   -0.628133  0.000398712
200   0.0539768   0.0611701    -0.66316  0.000239921
210   0.0514901   0.0587023   -0.358952  0.000250632
220   0.0489641   0.0561956    -1.67872  0.000288621
230   0.0457177   0.0529738    -1.61094  0.000318138
240   0.0426014   0.0498812   -0.799832  0.000332455
250   0.0390686   0.0463753    -1.10483  0.000316042
260   0.0362805   0.0436084     -1.6462  0.000292777
270    0.033213   0.0405643    -1.27481  0.000264264
280   0.0309953   0.0383634   -0.396852  0.000220299
290    0.028807   0.0361918    -1.10708  0.000213896
300   0.0267173    0.034118    -1.07291  0.000143922
310   0.0259286   0.0333352   -0.735757  0.000149441
320   0.0237285   0.0311519    0.312481  0.00014624
330   0.0230038   0.0304327   -0.127638  8.11634e-05
340   0.0221052   0.0295409    0.412871  0.000152025
350   0.0199633   0.0274153    0.819285  0.00014364
360   0.0192324     0.02669    0.311259  6.62494e-05
370   0.0186383   0.0261004   0.0404598  6.63951e-05
380   0.0179045   0.0253722    0.174885  4.74842e-05
390   0.0176886   0.0251579    0.107375  5.97404e-05
400   0.0167097   0.0241865    -1.07664  0.000110145
410   0.0154857   0.0229718   -0.873353  0.00012426
420   0.0142245   0.0217202    -1.85471  7.40902e-05
430   0.0140039   0.0215012     -1.5507  -4.02974e-06
440   0.0143051   0.0218001    -1.58487  4.47746e-05
450   0.0131084   0.0206126    -1.04347  0.000102357
460    0.012258   0.0197686    -1.48319  7.63989e-05
470   0.0115805   0.0190962   -0.807032  4.85985e-05
480    0.011286    0.018804   -0.875235  5.57214e-05
490    0.010466   0.0179902    -1.68711  8.90919e-05
500  0.00950417   0.0170357    -1.07843  9.10242e-05
510  0.00864555   0.0161836    -1.55222  5.96249e-05
520  0.00831167   0.0158523   -0.977409  3.55109e-06
530  0.00857452   0.0161131   -0.537818  -3.44804e-06
540  0.00838063   0.0159207    -1.34979  -3.86975e-05
550  0.00934847   0.0168812   -0.741503  -1.05131e-05
560   0.0085909   0.0161294    -1.14693  9.70157e-05
570  0.00740816   0.0149556    -1.11249  1.80933e-06
580  0.00855471   0.0160935   -0.605856  -7.94111e-05
590  0.00899638   0.0165318    -0.43723  7.1262e-06
600  0.00841219    0.015952    -1.18096  6.91141e-05
610   0.0076141     0.01516    -1.04588  2.31226e-05
620  0.00794973   0.0154931    -1.45186  -1.05105e-05
630  0.00782431   0.0153686    -1.14703  1.8877e-06
640  0.00791198   0.0154556    -1.18169  -2.47931e-05
650  0.00832017   0.0158607    -1.14769  -5.51188e-05
660  0.00901436   0.0165496   -0.471464  -3.73849e-05
670  0.00906787   0.0166027   -0.539139  -2.98023e-09
680  0.00901441   0.0165497   0.0359681  3.93127e-05
690  0.00828161   0.0158224     0.40795  4.11517e-05
700  0.00819138   0.0157329    0.238399  3.41085e-05
710  0.00759944   0.0151455   -0.336477  5.46277e-06
720  0.00808213   0.0156245     -1.0469  -1.9598e-05
730   0.0079914   0.0155344   -0.505962  7.28504e-06
740  0.00793642   0.0154799   -0.167751  1.62994e-05
750  0.00766541   0.0152109   -0.370413  -7.08983e-06
760  0.00807822   0.0156206   -0.776596  1.45644e-05
770  0.00737413   0.0149218   -0.844403  2.71712e-05
780   0.0075348   0.0150813   -0.810632  2.0049e-05
790  0.00697315   0.0145239   -0.675182  5.80376e-05
800  0.00637405   0.0139294   -0.235657  2.19472e-05
810   0.0065342   0.0140883   -0.134607  2.82773e-07
820  0.00636839   0.0139238   -0.100935  1.65987e-05
830  0.00620223   0.0137589    -0.74365  2.9353e-05
840  0.00578133   0.0133412   -0.743386  4.57699e-05
850  0.00528683   0.0128504   -0.540361  2.76583e-05
860  0.00522817   0.0127922   -0.777422  2.40992e-05
870  0.00480485   0.0123721   -0.946279  3.50803e-05
880  0.00452656   0.0120959   -0.236021  7.76448e-06
890  0.00464956    0.012218   -0.811193  1.51181e-05
900   0.0042242   0.0117959   -0.675909  2.06138e-05
910  0.00423728   0.0118089   -0.507085  2.06839e-05
920  0.00381052   0.0113853   -0.371965  2.62087e-05
930  0.00371311   0.0112887  -0.0676587  5.69178e-07
940  0.00379914    0.011374   -0.676768  6.09852e-06
950  0.00359114   0.0111676    -0.91373  2.81855e-05
960  0.00323543   0.0108146   -0.710605  4.85096e-05
970  0.00262094   0.0102048   -0.710143  5.41382e-05
980  0.00215266  0.00974009   -0.609027  3.57975e-05
990    0.001905   0.0094943    0.642468  -4.78872e-06
1000  0.00224844  0.00983513   0.0339201  4.48944e-06
1010  0.00181521   0.0094052      0.1354  6.30883e-06
1020  0.00212226  0.00970992   -0.101695  7.98254e-07
1030  0.00179924  0.00938935   -0.473743  2.49095e-05
1040  0.00162407  0.00921551   -0.135829  1.3817e-05
1050   0.0015229  0.00911511   -0.710804  -8.48502e-06
1060  0.00179377  0.00938392   -0.643492  -1.96632e-05
1070  0.00191617  0.00950539   -0.711134  5.30417e-05
1080  0.000732938  0.00833116    0.168412  4.00131e-05
1090   0.0011159  0.00871121     0.20182  2.79637e-06
1100  0.000677011  0.00827566    0.269561  2.5219e-05
1110  0.000611523  0.00821067    0.303332  -1.21832e-05
1120  0.000920674  0.00851747   0.0999769  -1.21889e-05
1130  0.000855302  0.00845259    0.573703  1.21782e-05
1140  0.000677109  0.00827575    0.675612  6.55879e-06
1150  0.000724126  0.00832241    0.506391  9.39349e-07
1160  0.000658322  0.00825711    0.438815  -6.60388e-06
1170  0.000856204  0.00845349    0.438121  3.67909e-05
1180  -7.74965e-05  0.00752688    0.134211  3.8699e-05
1190  8.2224e-05  0.00768539   -0.069145  -2.7529e-06
1200  -2.24385e-05  0.00758152    0.167751  4.79817e-06
1210  -1.37395e-05  0.00759016   -0.272137  -1.22424e-05
1220  0.00022241  0.00782451   -0.136952  2.94874e-05
1230  -0.000603488  0.00700489   -0.170757  3.32936e-05
1240  -0.000443462   0.0071637   -0.103445  -4.61036e-06
1250  -0.000511281   0.0070964   -0.407719  3.15417e-05
1260  -0.0010743  0.00653766   0.0320045  2.58671e-05
1270  -0.00102862  0.00658299   0.0656108  -2.36556e-05
1280  -0.000601185  0.00700718   -0.577039  -1.7956e-05
1290  -0.000669502  0.00693938    -1.05024  2.02283e-05
1300  -0.00100575  0.00660569    -1.11742  -1.99539e-05
1310  -0.000270423  0.00733543    -1.35484  -9.27892e-05
1320  0.000850033  0.00844736    -1.49032  -5.65142e-05
1330  0.00085986  0.00845711   -0.915183  -1.82772e-05
1340  0.00121558  0.00881013   -0.983056  -3.36889e-05
1350  0.00153364  0.00912577   -0.441953  -6.80533e-06
1360  0.00135168   0.0089452    -1.05057  1.24319e-05
1370    0.001285  0.00887902    -1.01693  -4.9072e-06
1380  0.00144983   0.0090426   -0.881742  1.05569e-05
1390  0.00107386  0.00866949    -1.52419  2.02254e-05
1400  0.00104532  0.00864116    -1.45658  1.64184e-05
1410  0.000745494  0.00834362   -0.949351  -1.01447e-06
1420  0.00106561   0.0086613    -1.25412  1.84362e-05
1430  0.00037677   0.0079777    -1.49052  3.00846e-05
1440  0.000463917  0.00806418    -1.42298  -6.77928e-06
1450  0.000512356  0.00811225    -1.25389  1.85338e-05
1460  9.32415e-05  0.00769632    -1.55826  2.94348e-06
1470  0.000453486  0.00805383   -0.713083  -1.26288e-05
1480  0.000345818  0.00794698   -0.983486  2.64224e-05
1490  -7.49612e-05   0.0075294   -0.746887  3.42969e-05
1500  -0.000340121  0.00726626    -1.08553  2.85072e-05
1510  -0.000645104  0.00696359   -0.577963  2.46471e-05
1520  -0.000833062  0.00677706   -0.949747  -8.28144e-07
1530  -0.000628541  0.00698003   -0.949813  -1.26092e-05
1540  -0.000580878  0.00702733   -0.138075  -4.77145e-06
1550  -0.000533112  0.00707473  -0.00265886  -1.06972e-05
1560  -0.000366933  0.00723965   -0.172012  -1.46632e-05
1570  -0.000239849  0.00736577   -0.307395  -2.84271e-06
1580  -0.000310079  0.00729607   -0.137877  -2.85844e-05
1590  0.000331838  0.00793311   -0.138108  -4.44578e-05
1600  0.000579076  0.00817847     -0.3412  -1.88034e-05
1610  0.000707907  0.00830632   -0.104535   2.086e-05
1620  0.000161877  0.00776444   -0.341034  -1.69052e-05
1630  0.00104601  0.00864185  -0.0369917  -3.47751e-05
1640  0.000857378  0.00845465    0.334858  3.48294e-05
1650  0.000349424  0.00795056    0.199574  1.09507e-05
1660  0.000638364   0.0082373    0.435974  -2.09387e-05
1670  0.000768198  0.00836615    0.402269  4.1004e-05
1680  -0.000181716  0.00742346    0.470439  3.90356e-05
1690  -1.25134e-05  0.00759137    0.537883  -4.91091e-06
1700  -8.34975e-05  0.00752093    0.740612  2.31651e-05
1710  -0.000475815  0.00713159    0.469944  3.32504e-05
1720  -0.000748506  0.00686098    -0.24038  1.52288e-05
1730  -0.000780391  0.00682933   -0.172474  -1.29249e-05
1740  -0.000490007  0.00711751   -0.240645  -1.49536e-05
1750  -0.00048132  0.00712613  -0.0713248   1.149e-06
1760  -0.000512987  0.00709471    0.402269  3.17117e-06
1770  -0.000544743  0.00706319   0.0638931  2.94968e-05
1780  -0.00110292  0.00650926  -0.0712585  4.57517e-05
1790  -0.00145978  0.00615511   0.0297586  -6.88765e-06
1800  -0.000965169  0.00664596    0.164812  9.40175e-06
1810  -0.00164781  0.00596851    0.199112  -2.52305e-05
1820  -0.000460558  0.00714674    0.232421  -2.31411e-05
1830  -0.00118499  0.00642781   0.0975656  2.56283e-05
1840  -0.000973124  0.00663807   -0.139297  -2.73382e-05
1850  -0.000638229  0.00697042  -0.0376193  -1.71763e-05
1860  -0.000629598  0.00697898   -0.071853  -2.91082e-06
1870  -0.000580012  0.00702819     0.26639  -8.65915e-07
1880  -0.00061228  0.00699617    0.165043  1.55418e-05
1890  -0.000890848  0.00671972    0.299997  5.29291e-06
1900  -0.000718138  0.00689111   0.0972354  -1.31788e-05
1910  -0.000627272  0.00698129  -0.00397998  -3.17523e-05
1920  -8.3092e-05  0.00752133  -0.00421099  -8.71596e-07
1930  -0.00060984  0.00699859    -0.30799  3.18909e-06
1940  -0.000146874  0.00745803   -0.308419  3.25835e-06
1950  -0.000675007  0.00693392   -0.240876  7.34435e-06
1960  -0.000293761  0.00731226   0.0974007  -2.94256e-06
1970  -0.000616156  0.00699232   -0.578822  -2.58179e-05
1980  0.000222596   0.0078247   -0.240909  -2.99645e-05
1990  -1.68664e-05  0.00758705   0.0296266  2.81362e-05
2000  -0.000340127  0.00726625     0.43571  2.8201e-05
2010  -0.000580886  0.00702732   0.0294944  -3.00304e-06
2020  -0.000280066  0.00732586   -0.308848  -2.80319e-05
2030  -2.02486e-05   0.0075837    0.130578  -4.901e-05
2040  0.000700134   0.0082986   -0.410658  -5.1474e-06
2050  8.26993e-05  0.00768586   -0.241371  4.29588e-05
2060  -0.000159042  0.00744596   -0.410658  2.63032e-05
2070  -0.000443365   0.0071638   -0.376788  1.15402e-06
2080  -0.000182123  0.00742305   -0.343346  5.3986e-06
2090  -0.000551337  0.00705665   -0.647554  4.75007e-05
2100  -0.00113214  0.00648026   -0.715229  9.64433e-06
2110  -0.000744223  0.00686523   -0.816907  5.50666e-06
2120  -0.00124227  0.00637097    -0.71513  4.9868e-05
2130  -0.00174158  0.00587545   -0.512435  -2.1988e-05
2140  -0.000802511  0.00680738    -1.05407  -3.89114e-05
2150  -0.000963356  0.00664776   -0.411583  -2.84681e-05
2160  -0.000233149  0.00737242   -0.716055  -2.84838e-05
2170  -0.000393681   0.0072131   -0.884847  1.39456e-05
2180  -0.00051206  0.00709563    -1.05394  -9.30903e-07
2190  -0.000375063  0.00723158   -0.749562  -9.16497e-07
2200  -0.00049373  0.00711382   -0.512864  -1.58882e-05
2210  -5.72995e-05  0.00754693   -0.648149  -9.21215e-07
2220  -0.000475306   0.0071321   -0.478697  2.25795e-05
2230  -0.00050889  0.00709877   -0.343611  -3.0948e-05
2240  0.000143655  0.00774635   -0.445288  -4.17196e-05
2250  0.000325503  0.00792682    -0.41122  -3.75583e-05
2260  0.000894821  0.00849181   -0.343446  -3.54772e-05
2270  0.00103505  0.00863097   -0.107408  -1.18862e-05
2280  0.00113254  0.00872772    0.129521  -5.44508e-06
2290  0.00114395  0.00873904    0.434257  -1.41085e-05
2300  0.00141471  0.00900775    0.230934  2.04943e-05
2310  0.000734062  0.00833227    0.366251  4.64867e-05
2320  0.00048498  0.00808508    0.332645  1.07514e-06
2330  0.000712559  0.00831093    0.535307  9.79858e-06
2340  0.000289008   0.0078906   0.0958155  2.06578e-05
2350  0.000299403  0.00790092    0.738135  7.67148e-06
2360  0.000135579  0.00773834     0.26431  -9.76743e-06
2370  0.000494752  0.00809478    0.670195  9.89611e-06
2380  -6.23437e-05  0.00754192    0.366252  2.07955e-05
2390  7.88422e-05  0.00768203    0.569046  -9.75821e-06
2400  0.00013282   0.0077356     0.16283  -2.51367e-05
2410  0.000581576  0.00818095    0.365789  1.65345e-05
2420  -0.00019787  0.00740743    0.568815  3.40827e-05
2430  -0.000100078  0.00750447    0.365954  -5.38968e-06
2440  -9.0076e-05   0.0075144    0.162896  -2.74508e-05
2450  0.000448937  0.00804932    0.399363  -9.8326e-06
2460  0.000106576  0.00770956    0.196634  -1.87565e-05
2470  0.000824066  0.00842159    0.467137  -3.2013e-05
2480  0.000746837  0.00834495    0.365558  2.32441e-05
2490  0.000359184  0.00796025   -0.141708  3.43794e-05
2500  5.92486e-05  0.00766259  -0.00619264  3.37216e-06
2510  0.000291741  0.00789331   0.0612841  -2.32796e-05
2520  0.00052484  0.00812464  -0.0402616  -5.52015e-06
2530  0.000402144  0.00800288   -0.277124  3.01319e-05
2540  -7.77982e-05  0.00752659   0.0274466  5.61878e-06
2550  0.000289768  0.00789136   0.0270832  -5.49256e-06
2560  3.2053e-05   0.0076356    0.162335  3.47646e-05
2570  -0.000405523  0.00720135    0.263946  1.46618e-05
2580  -0.000261184  0.00734459   -0.209647  -5.47077e-06
2590  -0.000296108  0.00730994   -0.141807  -2.57367e-05
2600  0.00025355  0.00785541   -0.243683  -3.25217e-05
2610  0.000354327  0.00795542    0.230142  -4.8424e-05
2620  0.00122203  0.00881653   -0.176239  -4.17303e-05
2630  0.00118893  0.00878369    0.162037  -7.99027e-06
2640  0.00138184  0.00897512     0.36503  -3.46826e-06
2650   0.0012583  0.00885252    0.601926  1.23709e-05
2660  0.00113442  0.00872959    0.703571  -8.02752e-06
2670  0.00141885  0.00901185    0.534184  -3.30283e-05
2680  0.00179499  0.00938513    0.635433  -1.49005e-05
2690  0.00171686   0.0093076    0.601595  -1.72525e-05
2700  0.00214004  0.00972756    0.229382  -1.72654e-05
2710  0.00206217  0.00965028    0.466377  -8.20367e-06
2720  0.00230411  0.00989038    0.432408  -1.50715e-05
2730   0.0023636  0.00994942    0.500115  1.92564e-05
2740  0.00191898  0.00950818    0.500083  2.15698e-05
2750   0.0019322   0.0095213    0.466179  3.08544e-05
2760  0.00130189  0.00889578    0.229448  2.16894e-05
2770  0.00149842  0.00909081   -0.244146  -3.54616e-06
2780  0.00137281  0.00896617    0.262856  5.65355e-06
2790  0.00138534   0.0089786    0.296859  -8.18819e-06
2800  0.00153658  0.00912869    0.330763  1.49428e-05
2810  0.00108649  0.00868202   0.0603925  1.03653e-06
2820  0.00151585  0.00910811    0.398471  -4.2996e-05
2830  0.00194641   0.0095354     0.70291  -4.31162e-05
2840  0.00237817  0.00996388    0.533425  5.63812e-06
2850  0.00183365   0.0094235   0.0943622  -8.39832e-06
2860  0.00254614   0.0101306   -0.108795  -3.86746e-05
2870  0.00260714   0.0101911  -0.00728268  -1.7794e-05
2880  0.00290202   0.0104837    0.330564  -1.4441e-06
2890  0.00263602   0.0102198   0.0262575  5.5432e-06
2900  0.00279115   0.0103737    0.398075  5.58895e-06
2910  0.00252424   0.0101088   0.0261915  3.37793e-05
2920  0.00211557  0.00970327    0.601067  4.09258e-05
2930  0.00170573  0.00929655    0.432011  5.68654e-06
2940  0.00200184  0.00959041   0.0253657  4.11582e-05
2950  0.000882561  0.00847964     0.16098  6.24483e-05
2960  0.00075287  0.00835094    0.397711  4.84938e-05
2970  -8.73146e-05  0.00751714   0.0932721  6.51745e-05
2980  -0.00055062  0.00705736  -0.0759156  1.31628e-05
2990  -0.00035057  0.00725589   -0.110017  -5.56928e-05
3000  0.000563237  0.00816275  -0.00896719  -2.24721e-05
3010  9.88713e-05  0.00770191    0.464957  3.21988e-05
3020  -8.07384e-05  0.00752367    0.871404  -3.45379e-05
3030  0.000789629  0.00838742    0.633946  3.69227e-06
3040  -0.000154584  0.00745038    0.837005  4.18818e-05
3050  -4.80073e-05  0.00755615    0.701853  2.52941e-05
3060  -0.000660467  0.00694835    0.667949  3.01181e-05
3070  -0.00065037  0.00695837    0.363312  -4.18919e-05
3080  0.000177371  0.00777981    0.396687  -1.5464e-05
3090  -0.00034109   0.0072653     0.70149  3.02159e-05
3100  -0.000426948  0.00718009    0.803068  -2.52146e-05
3110  0.000163202  0.00776575    0.599845  -1.55642e-05
3120  -0.000115664  0.00748901     1.00563  3.03496e-05
3130  -0.000443791  0.00716338     1.07308  2.55837e-05
3140  -0.000627337  0.00698122    0.971662  2.80982e-05
3150  -0.00100576  0.00660568    0.735096    2.33e-05
3160  -0.00109334  0.00651877     0.63355  -1.31567e-05
3170  -0.000742621  0.00686682     1.03914  -2.0483e-05
3180  -0.000683678  0.00692531    0.734898  -3.27828e-05
3190  -8.69646e-05  0.00751749    0.497936  -4.50754e-05
3200  0.000217831  0.00781997    0.700895  -1.11552e-06
3210  -6.46542e-05  0.00753963    0.904086  1.35638e-05
3220  -5.34461e-05  0.00755075    0.532004  3.79372e-06
3230  -0.000140529  0.00746433    0.024441  3.79829e-06
3240  -0.000129412  0.00747536    0.193431  3.81619e-06
3250  -0.000216852  0.00738859    0.768504  -1.11777e-06
3260  -0.000107057  0.00749755    0.193497  -2.58322e-05
3270  0.000299792   0.0079013    0.362684  -2.09346e-05
3280  0.000311635  0.00791306    0.565512  3.77368e-06
3290  0.000224318   0.0078264    0.464197  -3.09944e-05
3300  0.000931523  0.00852823    0.531278  1.12581e-05
3310  -8.44613e-07  0.00760295    0.396192  2.8607e-05
3320  0.000359383  0.00796044    0.565116  2.62946e-05
3330  -0.000526737  0.00708106    0.396027  3.12774e-05
3340  -0.000266165  0.00733965     0.32812  -1.10826e-05
3350  -0.000305085  0.00730103    0.226806  1.64288e-05
3360  -0.000594742  0.00701357    0.328418  6.42032e-06
3370  -0.000433492   0.0071736    0.801846  -2.11772e-05
3380  -0.000171198   0.0074339    0.564884  1.14939e-05
3390  -0.000663369  0.00694547      1.1736  1.14719e-05
3400  -0.000400637   0.0072062    0.970803  9.03881e-06
3410  -0.000844146  0.00676607     1.41046  1.42547e-06
3420  -0.000429147  0.00717791     1.00424  6.56065e-06
3430  -0.000975359  0.00663585     1.20727  4.45579e-05
3440  -0.00132031  0.00629353    0.835486  9.14141e-06
3450  -0.00115819  0.00645441    0.801549  -1.62366e-05
3460  -0.000995573  0.00661579    0.801318  -1.11892e-05
3470  -0.000934402   0.0066765     1.00411  1.5299e-06
3480  -0.00102617  0.00658542    0.936701  -3.58995e-06
3490  -0.000862603  0.00674775    0.801153  -3.58087e-06
3500  -0.000954553   0.0066565    0.936635  -2.92521e-05
3510  -0.000277562  0.00732834    0.767381  -2.67153e-05
3520  -0.000420247  0.00718674    0.936569  -6.28528e-06
3530  -0.000151856  0.00745309    0.835155  6.60668e-06
3540  -0.000552381  0.00705561    0.699706  -3.74457e-06
3550  -7.69648e-05  0.00752741    0.598128  -6.27176e-06
3560  -0.000426946  0.00718009    0.834825  3.76405e-05
3570  -0.000829774  0.00678033     1.00415  7.14494e-05
3580  -0.00185593  0.00576197     1.44387  1.71063e-05
3590  -0.0011719   0.0064408      1.6804  -3.47088e-05
3600  -0.00116176  0.00645087       1.376  1.98177e-05
3610  -0.00156826  0.00604746     1.47751  3.28888e-05
3620  -0.00181953  0.00579809     1.51125  2.25548e-05
3630  -0.00201935   0.0055998     1.54492  2.00131e-05
