Time   C(t)   
ps   
0           1           1  1.21783e-10   0.0310034
10    0.689945    0.862417    0.141681   0.0166008
20    0.667984    0.852672    0.322072  0.00219819
30    0.645981    0.842909    -0.68447  0.00178472
40    0.632289    0.836833     2.01716  0.00140243
50    0.617933    0.830463   0.0732328  0.00102642
60    0.611761    0.827724     -0.5758  0.000685647
70     0.60422    0.824378   -0.107404  0.000886711
80    0.594027    0.819855    0.433415  0.000828379
90    0.587652    0.817026  -0.0715441  0.000602067
100    0.581985    0.814512     1.76477  0.000687498
110    0.573902    0.810925      1.8379  0.000620505
120    0.569575    0.809005   -0.215617  0.000581786
130    0.562267    0.805762    0.972089  0.000574836
140    0.558078    0.803903     0.93528  0.000443372
150    0.553399    0.801827      2.1959  0.000585192
160    0.546375     0.79871     1.90849  0.000618523
170    0.541029    0.796338    0.467587  0.000240493
180    0.541565    0.796576    0.574534  0.000382686
190    0.533375    0.792942     1.43887  0.000674209
200    0.528081    0.790592    0.394284  0.000388271
210    0.525609    0.789496   0.0333626  0.000344655
220    0.521187    0.787533     1.32981  0.00049943
230    0.515621    0.785063     1.58213  0.000374499
240    0.513697     0.78421     1.72624  0.000420183
250    0.507217    0.781334    0.718079   0.0005225
260    0.503247    0.779573     1.22332  0.000189713
270    0.503423    0.779651     1.18531  0.000341205
280    0.496423    0.776545     3.27582  0.000349653
290     0.49643    0.776548      2.2659  8.92788e-05
300    0.494638    0.775752     1.58164  0.000158912
310    0.493252    0.775137     1.79627  0.00033939
320     0.48785     0.77274     1.32992  0.000520198
330    0.482848    0.770521     1.36563  0.000193085
340    0.483988    0.771027     2.26449  0.000353986
350    0.475768    0.767379     2.87784  0.000609142
360    0.471805    0.765621     1.86947  0.000153801
370    0.472692    0.766014     2.19235  0.000191413
380    0.467977    0.763922     3.52529  0.000459652
390    0.463499    0.761935     2.73398  0.000270703
400    0.462563     0.76152     2.01242  0.000271437
410     0.45807    0.759526     3.05703  0.000168397
420    0.459195    0.760025     1.72339  4.89071e-05
430    0.457092    0.759092       2.444  0.000227109
440    0.454653     0.75801     3.05538   0.0001238
450    0.454616    0.757993     2.19129  0.000331949
460    0.448014    0.755064     1.25514  0.000373933
470    0.447137    0.754675     2.91201  9.60484e-05
480    0.446093    0.754211     2.76762  0.000242072
490    0.442296    0.752526     2.98334  7.55787e-05
500    0.444581    0.753541     1.36229  0.000155401
510    0.439188    0.751147     1.72272  0.000289112
520    0.438799    0.750975     2.58635  0.000218861
530    0.434811    0.749205    0.785896  0.000244263
540    0.433914    0.748807     1.54216  0.000156857
550    0.431674    0.747813     3.09096  0.000148711
560     0.43094    0.747487     1.64967  6.5054e-05
570    0.430373    0.747236     1.61374  0.000132525
580    0.428289    0.746311     1.43405  0.000195892
590    0.426455    0.745497     1.21755  3.60996e-05
600    0.427567    0.745991     1.57679  0.000175649
610    0.422942    0.743938     1.28874  0.000255975
620    0.422448    0.743719    0.856032  0.000193307
630    0.419076    0.742223    0.856278  0.000341795
640    0.415612    0.740686    0.280232  0.000194152
650    0.415193      0.7405     1.43342  4.19691e-05
660    0.414772    0.740313      1.1799  0.000203422
670    0.411124    0.738694     1.07179  0.000135675
680    0.412059    0.739109   0.0273127  5.96046e-09
690    0.411124    0.738694     2.00834  0.000110663
700    0.409846    0.738127     1.32415  0.000319968
710    0.404725    0.735855     2.58582  0.000320451
720    0.403437    0.735283     1.93647  0.000205919
730    0.400606    0.734027     2.69354  0.000270469
740    0.398027    0.732883    0.964386  1.8248e-05
750    0.400241    0.733865     1.32439  -0.000110127
760     0.40023     0.73386    0.495849  0.000125715
770    0.397727     0.73275   -0.153113  0.000327866
780    0.393673     0.73095    0.891471  0.000190787
790    0.393911    0.731056     1.39499  -7.99701e-05
800    0.395272     0.73166     1.25084  0.000131269
810    0.391286    0.729891    0.530197  0.000334214
820    0.388588    0.728694     1.93472  0.000205268
830     0.38718     0.72807      1.1793  0.000166884
840     0.38525    0.727213     0.35079  0.000271168
850    0.381757    0.725663    0.962487  0.000354032
860    0.378169    0.724071     1.53938  0.000241992
870    0.376917    0.723516     2.18626  0.000112209
880    0.375925    0.723075     1.68254  0.000125545
890    0.374406    0.722401     1.32232  0.000282632
900    0.370273    0.720567    0.998206  0.000322293
910    0.367961    0.719541     1.64618  0.000187826
920    0.366516      0.7189     1.57443  0.000323775
930    0.361485    0.716668     1.57489  0.000109917
940    0.364318    0.717925     1.89882  0.000141194
950    0.358661    0.715415     1.79096  0.000351508
960    0.357287    0.714805     1.25021  0.000185777
970    0.354946    0.713766     1.79057  1.47417e-05
980    0.356993    0.714674   -0.299578  0.000111791
990     0.35271    0.712774     1.68201  0.00023504
1000    0.352292    0.712588   0.0249209  0.000231354
1010    0.348083    0.710721    0.817112  0.000253673
1020    0.347218    0.710337   0.0604291  4.2367e-05
1030    0.347235    0.710345  -0.0125916  0.000175239
1040    0.343714    0.708782    0.492719  0.00015769
1050    0.344082    0.708945     1.10487  3.85448e-05
1060    0.342943     0.70844     1.39193  0.000162841
1070    0.340825      0.7075     1.75179  0.000189807
1080    0.339147    0.706755     1.68067  0.000167999
1090    0.337465    0.706009     2.18475  0.00016841
1100    0.335778    0.705261     2.07633  0.000329258
1110     0.33088    0.703087     1.46435  0.000240554
1120    0.330967    0.703126     1.10399  3.58835e-05
1130    0.330162    0.702769    0.995392  0.000232698
1140    0.326313    0.701061     1.24726  -5.80415e-05
1150    0.331323    0.703284     1.28146  7.23675e-05
1160    0.324866    0.700419     2.50756  0.000354645
1170     0.32423    0.700136     2.54314  0.000211976
1180    0.320626    0.698537     1.10213  0.000185306
1190    0.320524    0.698492     2.47075  0.000109367
1200    0.318439    0.697567     1.57017  0.000123021
1210    0.318063      0.6974     2.18187  0.00020465
1220    0.314346     0.69575    0.993985  0.000227539
1230    0.313513    0.695381   -0.159128  -5.23195e-05
1240    0.315393    0.696215   0.0560668  0.000115317
1250    0.311206    0.694357      1.4615  0.000237708
1260    0.310638    0.694105     0.74096  0.000133996
1270    0.308526    0.693168     0.84861  0.000284244
1280    0.304953    0.691583     1.93021  0.000316663
1290    0.302193    0.690358     2.29012  0.000103289
1300    0.302888    0.690666    0.848576  6.27026e-05
1310    0.300939    0.689801     1.92958  0.000163157
1320    0.299625    0.689218     2.00169  5.84319e-05
1330     0.29977    0.689283    0.668537  0.000223368
1340    0.295157    0.687236     1.13725  0.000173211
1350    0.296306    0.687745    0.271755  0.000284056
1360    0.289476    0.684715   -0.375799  0.000233717
1370    0.291632    0.685671   -0.593316  0.000179625
1380    0.285884    0.683121   -0.304784  0.000340702
1390    0.284818    0.682648   0.0188007  0.00015282
1400    0.282827    0.681764  -0.0167782  0.000346906
1410     0.27788    0.679569   -0.845251  0.000213563
1420    0.278556    0.679869    0.378597  0.000191271
1430    0.274054    0.677871     1.09903  0.000209948
1440    0.274357    0.678006     0.34133  0.000178275
1450    0.270489    0.676289   -0.450686  0.000442976
1460    0.265497    0.674075    -0.19752  0.000239521
1470    0.265698    0.674164   -0.954765  0.000128764
1480    0.262922    0.672932    -1.06235  9.15751e-05
1490    0.263867    0.673351   -0.342367  9.66534e-05
1500    0.260989    0.672074    -1.38681  0.000143398
1510    0.260999    0.672078   -0.415248  0.000148562
1520    0.258018    0.670756   -0.379036  0.000284432
1530     0.25531    0.669554    0.557791  0.000205477
1540    0.253908    0.668932     1.20556  0.000238876
1550    0.250533    0.667434    -0.01931  0.000323897
1560     0.24743    0.666058    0.521615  7.54565e-05
1570    0.249023    0.666764    0.449297  -1.35399e-05
1580    0.247701    0.666178     0.37631  -3.72879e-05
1590    0.249769    0.667095    0.664351  3.36081e-05
1600    0.247029    0.665879    0.952674  0.000165649
1610    0.246456    0.665625    0.699472  0.000279677
1620    0.241435    0.663397     1.67321  0.000242261
1630    0.241611    0.663475    0.556279  2.97792e-05
1640     0.24084    0.663133     1.70869  1.26958e-06
1650    0.241586    0.663464    0.591787  0.000148738
1660    0.237865    0.661813     1.49216  0.000163089
1670    0.238324    0.662017      1.4557  9.70088e-05
1680    0.235925    0.660952     1.49184  0.000130476
1690    0.235714    0.660859  -0.0934573  0.000150054
1700    0.232924     0.65962   0.0517757  0.000198055
1710    0.231753    0.659101   -0.525149  0.000179458
1720    0.229335    0.658028    0.806807  0.000198989
1730    0.227773    0.657335     0.80649  0.000108346
1740    0.227168    0.657066    0.230303  8.46647e-05
1750     0.22608    0.656584   -0.526768  0.000181049
1760    0.223547     0.65546   -0.597959  0.000431839
1770    0.217443    0.652751     1.05983  0.000341037
1780    0.216726    0.652433    0.518871  6.21922e-05
1790      0.2162    0.652199    0.771263  1.40436e-05
1800    0.216445    0.652308    0.157914  0.000115741
1810    0.213885    0.651172  -0.0216664  0.000232126
1820    0.211803    0.650248    0.662346  9.20586e-05
1830    0.212044    0.650355   -0.490801  2.44133e-05
1840    0.211314    0.650032     1.77777  0.000277252
1850    0.206498    0.647895    0.121281  0.000501722
1860     0.20128    0.645579   0.0499471  0.000454172
1870    0.197415    0.643864    0.013982  0.000367498
1880     0.19393    0.642317   -0.274094  0.000133868
1890    0.194738    0.642676     1.34647  0.00012466
1900    0.191437    0.641211   0.0855967  0.000193319
1910    0.190871     0.64096   -0.706912  0.000100777
1920    0.189421    0.640317   -0.454976  0.00012059
1930     0.18846     0.63989   -0.203711  0.000174985
1940    0.185922    0.638764    0.336827  0.000278757
1950    0.182884    0.637416      1.3459  0.000235054
1960    0.181221    0.636678     1.99427  0.00014685
1970    0.179947    0.636113     1.48913  0.000216451
1980    0.176891    0.634757    0.157035  0.000231723
1990    0.175313    0.634056      1.0573  0.000108534
2000    0.174721    0.633794   -0.348205  0.000297394
2010    0.169365    0.631417  -0.0951467  0.000253121
2020    0.169658    0.631547    -0.74467  0.000159571
2030    0.166174    0.630001    0.948101  0.000269327
2040    0.164272    0.629157    0.372372  9.56327e-05
2050    0.164261    0.629152    0.840169  0.000180835
2060    0.160655    0.627552     1.30885  0.000256049
2070     0.15914     0.62688     1.81226  0.000146689
2080    0.157721     0.62625     2.06476  0.000162096
2090    0.155898    0.625441     1.20127  3.20829e-05
2100     0.15708    0.625966     1.74064  0.000233295
2110    0.151232    0.623371     1.45313  0.00028372
2120    0.151405    0.623448     1.34485  -2.74226e-05
2130    0.151781    0.623614     1.30871   6.328e-05
2140     0.15014    0.622886    0.840169  0.000108749
2150    0.149606    0.622649     1.77657  0.000184918
2160    0.146441    0.621245     1.34453  0.000139683
2170    0.146812    0.621409     1.09179  8.95947e-05
2180    0.144649     0.62045     2.89337  0.000241919
2190    0.141974    0.619263    0.732519  -5.72965e-05
2200    0.145795    0.620958     2.24367  -3.16136e-05
2210    0.142606    0.619543     2.85638  0.000232758
2220     0.14114    0.618893     1.95584  0.000213059
2230    0.138345    0.617652     1.74012  6.03117e-05
2240    0.139934    0.618357      2.1003  -9.26502e-05
2250    0.140198    0.618474     1.81134  0.000101623
2260    0.137902    0.617456     2.02823  -8.59797e-07
2270    0.140215    0.618482     1.59576  -0.000134049
2280    0.140583    0.618645     2.09956  -8.3968e-07
2290    0.140232     0.61849     2.20672  0.000225565
2300    0.136071    0.616643     2.35171  0.000102207
2310    0.138188    0.617582     1.48625  3.06591e-05
2320    0.135458    0.616371     1.34238  0.000149255
2330    0.135202    0.616258     1.55867  0.000103195
2340    0.133394    0.615456    0.910237  0.000196677
2350    0.131269    0.614512    0.874447  0.000326899
2360    0.126856    0.612554     1.88335  0.000145736
2370    0.128354    0.613219     1.77482  2.68787e-05
2380    0.126319    0.612316     2.02671  -2.53469e-05
2390    0.128861    0.613444    0.693809  2.70121e-05
2400    0.125778    0.612076   -0.350176  0.000219943
2410    0.124462    0.611492     1.16203  0.000147482
2420    0.122829    0.610767     1.45011  5.88074e-05
2430    0.123286     0.61097     1.91843   4.334e-05
2440    0.121962    0.610383     2.85484  0.000132605
2450    0.120634    0.609793     2.09794  0.000274881
2460    0.116464    0.607943     2.06254  6.48785e-05
2470    0.119336    0.609218     2.09734  -0.000113679
2480    0.118738    0.608952     1.41372  0.000302727
2490    0.113282    0.606531     2.09833  0.000118259
2500    0.116373    0.607902     2.02538  -2.37621e-05
2510    0.113757    0.606742      3.1061  0.000145359
2520    0.113465    0.606612    0.944618  3.97868e-05
2530    0.112961    0.606389     1.59256  3.98874e-05
2540    0.112668    0.606258    0.908583  0.000189001
2550    0.109181    0.604711     1.84527  0.000189277
2560    0.108882    0.604579    0.692367  7.26156e-05
2570    0.107729    0.604067     1.26866  8.87886e-05
2580    0.107106    0.603791     1.01609  0.000137233
2590    0.104984    0.602849    0.872091  0.000148173
2600    0.104143    0.602476     1.62912  0.000191547
2610    0.101153    0.601149     1.55691  0.000111416
2620    0.101915    0.601487    0.979704  4.74364e-05
2630    0.100205    0.600728     1.70021  0.000176623
2640   0.0983822    0.599919     0.43987  0.00019328
2650   0.0963391    0.599013     1.26845  9.11929e-05
2660   0.0965583     0.59911    0.655417  0.000215947
2670   0.0920202    0.597096     1.12431  0.000313695
2680   0.0902844    0.596326    0.656226  0.000146669
2690   0.0890868    0.595795    0.871738  0.000103658
2700   0.0882113    0.595406     1.48414  0.000218143
2710   0.0847239    0.593859   0.0801088  0.000120556
2720   0.0858002    0.594336     1.30417  -0.000102308
2730   0.0867701    0.594767   -0.137654  0.000126688
2740   0.0832664    0.593212    0.258811  2.83226e-05
2750   0.0862037    0.594515    0.725836  -4.77862e-05
2760   0.0842221    0.593636    0.113824  0.000165535
2770    0.082893    0.593046   -0.786581  0.00025386
2780   0.0791449    0.591383    0.150422  0.000232415
2790   0.0782447    0.590984   -0.678368  0.000106654
2800   0.0770118    0.590437   -0.246113  0.000112423
2810   0.0759962    0.589986   -0.894477  0.000151404
2820   0.0739838    0.589093    -1.03866  0.000146233
2830   0.0730716    0.588688   -0.930478  7.47647e-05
2840   0.0724885    0.588429    -2.08415  0.000191379
2850    0.069244     0.58699    -2.04745  0.000286078
2860   0.0667669    0.585891    -1.00294  0.000164689
2870   0.0659502    0.585528    -1.03957  0.000248762
2880   0.0617917    0.583683   -0.246464  0.000154453
2890   0.0628612    0.584157   -0.967428  8.8278e-05
2900   0.0600261    0.582899   -0.715283  9.38257e-05
2910   0.0609847    0.583325   -0.823706  -1.2002e-05
2920   0.0602662    0.583006    -1.97657  0.000256922
2930   0.0558462    0.581045    -1.07522  0.000274237
2940   0.0547814    0.580572    -1.11136  0.000168456
2950   0.0524771     0.57955    -1.11133  -5.70882e-06
2960   0.0548956    0.580623    -1.47242  -9.55988e-05
2970   0.0543891    0.580398   -0.464192  0.000208828
2980    0.050719     0.57877   -0.859708  0.000214839
2990   0.0500923    0.578491   -0.896201  2.88125e-05
3000   0.0501428    0.578514   -0.752233  9.70092e-05
3010   0.0481521    0.577631    -1.32867  0.000205013
3020   0.0460425    0.576694   -0.968377  0.000125996
3030   0.0456322    0.576512    -1.76131  0.000109394
3040   0.0438547    0.575724   -0.860834  0.000183729
3050   0.0419576    0.574882    -1.47277  0.000184273
3060   0.0401692    0.574088     -2.4095  8.18573e-05
3070   0.0403204    0.574155    -2.05009   8.222e-05
3080   0.0385248    0.573359   -0.789078  0.000133948
3090   0.0376415    0.572967    -1.43804  0.000255029
3100   0.0334242    0.571095    -1.61759  0.000290047
3110   0.0318405    0.570392    -1.50976  0.000285318
3120   0.0277179    0.568563    -1.14937  0.000135957
3130   0.0291214    0.569186   -0.717814  -9.43159e-05
3140   0.0296042      0.5694   -0.213384  7.31262e-05
3150   0.0276589    0.568537   -0.537635  4.99552e-05
3160   0.0286051    0.568957    -1.22281  0.000131557
3170   0.0250277    0.567369   -0.790203  0.000119992
3180   0.0262052    0.567892  -0.0707517  0.000138159
3190   0.0222645    0.566143    -0.39416  8.57594e-05
3200     0.02449    0.567131   -0.286686  -1.27675e-05
3210   0.0225199    0.566257   0.0730748  0.000156367
3220   0.0213627    0.565743   -0.611045  2.22307e-05
3230   0.0220753    0.566059   -0.322228  -0.000118226
3240   0.0237272    0.566792   -0.503288  2.82753e-05
3250   0.0215098    0.565808   -0.286722  0.000245612
3260    0.018815    0.564613   -0.719609  3.43333e-05
3270   0.0208231    0.565504   -0.179211  -4.18891e-05
3280   0.0196527    0.564984   -0.863365  0.000247164
3290   0.0158798     0.56331    -0.46648  0.00021813
3300   0.0152902    0.563048    0.541435  -2.38628e-05
3310   0.0163571    0.563522   -0.719293  -2.97663e-05
3320   0.0158855    0.563313   -0.539359  0.000172056
3330    0.012916    0.561995    0.865864  0.000136709
3340   0.0131513    0.562099    0.505435  0.000149275
3350  0.00993047     0.56067    0.613929  7.18636e-05
3360    0.011714    0.561462    -1.54808  -0.000154701
3370   0.0130245    0.562043    -0.46778  0.000108219
3380  0.00954966    0.560501   -0.143352  0.000162136
3390  0.00978178    0.560604    0.648769  -0.000101321
3400   0.0115761      0.5614    0.432133  4.88874e-05
3410  0.00880403     0.56017    0.720735  2.45747e-05
3420   0.0110846    0.561182   -0.143599  5.51604e-05
3430  0.00770082    0.559681    0.180831  0.000230152
3440  0.00648156     0.55914    0.108337  0.000103947
3450  0.00562188    0.558758   -0.432095  1.3372e-05
3460  0.00621412    0.559021    0.972529  4.99351e-05
3470  0.00462318    0.558315  -1.74387e-05  0.000141108
3480  0.00339196    0.557769   -0.251705  -4.1063e-05
3490  0.00544444     0.55868    0.540064  -4.70337e-05
3500  0.00433264    0.558186    0.287918  0.000196846
3510  0.00150752    0.556933    0.107528  6.27698e-05
3520  0.00307724    0.557629   -0.252936  -2.24591e-05
3530   0.0019567    0.557132    -1.04534  5.70073e-05
3540  0.00193709    0.557123   -0.973056  0.000161733
3550  -0.00127796    0.555697    -1.54914  -2.87924e-05
3560  0.00251294    0.557379   -0.433679  -5.29977e-05
3570  -0.000218009    0.556167   -0.505363  0.000162412
3580  -0.000735292    0.555937   -0.325535  0.000156918
3590  -0.00335637    0.554774   -0.253393  0.000169618
3600  -0.00412766    0.554432   -0.325325  0.000120657
3610  -0.0057695    0.553704   -0.289641  5.8861e-05
3620  -0.00530488     0.55391   -0.253816  3.2305e-06
3630  -0.00583411    0.553675   -0.794283  -2.80134e-05
3640  -0.00474461    0.554158   -0.614491  -0.000177772
3650  -0.00227868    0.555253   -0.615265  -0.000109454
3660  -0.00255552     0.55513   -0.146483  0.000127897
3670  -0.00483662    0.554118   -0.435333  0.000184609
3680  -0.0062477    0.553491   -0.939272  0.000135003
3690  -0.00753668    0.552919   -0.687337  0.000229796
3700  -0.0108436    0.551452  -0.0748324  0.000129576
3710  -0.0101282    0.551769   -0.471578  3.56094e-05
3720  -0.0115558    0.551136   -0.723407  2.92425e-05
3730   -0.010713     0.55151   -0.399613  7.38449e-05
3740  -0.0130327    0.550481    -0.79548  8.64915e-05
3750  -0.0124429    0.550742   -0.183432  0.000125123
3760  -0.0155352     0.54937    0.104362  5.52745e-05
3770  -0.0135484    0.550252    -1.15668  6.22124e-05
3780  -0.0167794    0.548818   -0.507684  0.000119394
3790  -0.0159363    0.549192   -0.111818  -7.80425e-05
3800  -0.0152186    0.549511   -0.796535  3.05655e-05
3810  -0.0165476    0.548921   -0.868465  0.000139536
3820  -0.0180093    0.548272   -0.616566  0.000127138
3830  -0.0190903    0.547793  -0.00441383  0.000108272
3840  -0.0201747    0.547311   -0.255997  0.000160155
3850  -0.0222934    0.546371   -0.148416  1.8557e-05
3860  -0.0205459    0.547147   -0.148804  0.000193528
3870   -0.026164    0.544654    -0.11231  0.000187114
3880  -0.0242881    0.545486    0.139308  -6.28633e-06
3890  -0.0260383     0.54471   -0.544671  -6.60876e-06
3900   -0.024156    0.545545    -0.54467  -0.000129986
3910  -0.0234385    0.545863    0.860272  -9.79293e-05
3920  -0.0221974    0.546414    0.715249  0.000136903
3930  -0.0261766    0.544648    0.824341  6.49795e-05
3940   -0.023497    0.545837   -0.149472  -1.94703e-05
3950  -0.0257872    0.544821    0.715601  0.000209741
3960  -0.0276918    0.543976    0.319487  1.32847e-05
3970  -0.0260529    0.544703   0.0306381  -9.83188e-05
3980  -0.0257254    0.544848    0.859041  0.000171647
3990  -0.0294858     0.54318    0.211556  0.000125654
4000  -0.0282385    0.543733   -0.402004  -5.87804e-05
4010  -0.0283102    0.543701     -0.0774  9.9971e-05
4020  -0.0302379    0.542846   -0.113436  2.04912e-05
4030    -0.02872     0.54352  -0.0414696  -0.000125466
4040  -0.0277286    0.543959  -0.0776454  1.39496e-05
4050   -0.028999    0.543396    0.426645  1.38085e-05
4060  -0.0280048    0.543837    0.930126  -4.61203e-05
4070  -0.0280766    0.543805   0.0656888  5.30574e-07
4080  -0.0280154    0.543832   -0.365863  3.40848e-05
4090  -0.0287583    0.543503    0.570331  2.0686e-05
4100  -0.0284291    0.543649    0.570191  7.46441e-05
4110  -0.0302512     0.54284    0.318045  2.75298e-05
4120  -0.0289797    0.543404    0.317517  -0.000100361
4130   -0.028244    0.543731   -0.294776  0.000149503
4140  -0.0319698    0.542078    0.533592  0.000136057
4150  -0.0309651    0.542523    0.353413  -4.62948e-05
4160  -0.0310439    0.542488  -0.0786662  8.26162e-05
4170  -0.0326175     0.54179   0.0296177  -5.78268e-06
4180  -0.0309282     0.54254   -0.618888  -5.32595e-05
4190  -0.0315523    0.542263   -0.186422  0.000117205
4200  -0.0332723      0.5415   -0.223021  0.00015859
4210  -0.0347241    0.540855   -0.655346  0.000118018
4220  -0.0356327    0.540452   -0.619309  0.000200923
4230  -0.0387425    0.539072   -0.943527  -1.87786e-05
4240  -0.0352571    0.540619   -0.835561  4.37427e-05
4250  -0.0396174    0.538684    -0.43892  0.000167503
4260  -0.0386071    0.539132   0.0649486  -0.000128864
4270  -0.0370401    0.539828  -0.0430179  -5.99625e-05
4280  -0.0374079    0.539664   -0.439236  -1.17602e-05
4290  -0.0368049    0.539932    0.100142  -4.76856e-06
4300  -0.0373125    0.539707  -0.0795098  9.05357e-06
4310   -0.036986    0.539852   -0.331551  3.70668e-05
4320  -0.0380539    0.539378    -0.51166  4.40652e-05
4330  -0.0378673    0.539461    -1.30431  4.43406e-05
4340  -0.0389407    0.538984   -0.619943  0.000275869
4350  -0.0433847    0.537012   -0.583554  0.000143015
4360   -0.041801    0.537715   -0.620083  -1.78382e-05
4370  -0.0430279    0.537171   -0.187583  6.6484e-05
4380  -0.0431306    0.537125   -0.584189  9.50681e-05
4390  -0.0449293    0.536327   -0.764087  -0.000124156
4400  -0.0406475    0.538227  -0.0442832  -3.1882e-05
4410  -0.0442916     0.53661   -0.332148  0.000159094
4420  -0.0438294    0.536815   -0.980443  -0.000153069
4430  -0.0412302    0.537968   -0.872897  -0.000181956
4440  -0.0401903     0.53843   -0.836791  6.72294e-05
4450  -0.0425748    0.537372    -1.44891  0.000138704
4460  -0.0429644    0.537199    -1.41319  8.91982e-05
4470  -0.0443588     0.53658    -1.30543  3.91556e-05
4480  -0.0437475    0.536851    -1.44937  -3.2446e-05
4490  -0.0437099    0.536868    -0.94518  6.10638e-05
4500  -0.0449687    0.536309    -1.41344  -9.04474e-05
4510  -0.0419009    0.537671    -1.16147  3.98206e-05
4520  -0.0457652    0.535956   -0.549172  -4.16413e-06
4530  -0.0418176    0.537708  -0.00937337  -0.000163151
4540  -0.0425021    0.537404    -1.05406  3.94646e-05
4550  -0.0426069    0.537357    -2.06257  0.000127098
4560  -0.0450441    0.536276     -1.0902  0.000185751
4570  -0.0463219    0.535709    -2.20654  9.87688e-05
4580  -0.0470195    0.535399    -2.42272  0.000179773
4590  -0.0499174    0.534114    -1.30589  4.81285e-05
4600   -0.047982    0.534972    -1.91889  -3.94778e-05
4610  -0.0491278    0.534464     -1.5226  0.000247392
4620  -0.0529299    0.532777   -0.910024  0.000129972
4630  -0.0517273     0.53331    -0.94606  -2.4353e-05
4640  -0.0524428    0.532993     -1.1622  0.000197611
4650  -0.0556795    0.531557    -0.36945  -0.00010619
4660   -0.050319    0.533935   -0.586439  -0.000105767
4670  -0.0535642    0.532495   -0.694336  0.000168671
4680  -0.0536924    0.532438   0.0263107  0.000102443
4690   -0.055613    0.531586   -0.766548  0.000214818
4700  -0.0579888    0.530532   -0.153975  0.00018561
4710  -0.0593252    0.529939   -0.730232  8.13333e-05
4720  -0.0596155     0.52981   -0.550264  8.17297e-05
4730  -0.0609598    0.529214   -0.550368  0.000104552
4740  -0.0617065    0.528882   0.0257485  -9.12802e-05
4750  -0.0591342    0.530024    0.277683  6.7525e-05
4760   -0.063057    0.528283  -0.0460416  0.000271752
4770  -0.0645692    0.527612    0.638148  1.48896e-05
4780  -0.0633548    0.528151    0.349473  0.000136971
4790  -0.0673086    0.526396   -0.622511  -3.83496e-05
4800  -0.0625878    0.528491   0.0616788  -0.00022095
4810  -0.0628896    0.528357   -0.154431  2.25801e-05
4820  -0.0630394    0.528291  -0.0105337  -0.000145984
4830    -0.05997    0.529653    0.348981  -3.10157e-05
4840  -0.0624191    0.528566   -0.730864  0.000314642
4850  -0.0662628     0.52686   -0.118712  0.000184636
4860  -0.0661118    0.526927    0.385438  -7.69343e-05
4870  -0.0647241    0.527543   -0.803252  -0.000100334
4880  -0.0641051    0.527818  -0.0112381  -7.70353e-06
4890    -0.06457    0.527612   -0.299243  4.65233e-05
4900  -0.0650356    0.527405   0.0966584  -6.23196e-05
4910  -0.0633236    0.528165    0.600669  -7.0104e-05
4920  -0.0636335    0.528027    0.420701  6.22995e-05
4930  -0.0645696    0.527612    0.240873  4.67919e-05
4940  -0.0645694    0.527612    0.600704  -8.63302e-05
4950   -0.062843    0.528378    0.816813  0.000102248
4960  -0.0666143    0.526704   0.0966235  7.5154e-06
4970  -0.0629933    0.528311   -0.264473  8.72437e-05
4980  -0.0683592     0.52593   -0.156085  6.2998e-05
4990  -0.0642533    0.527752  -0.0843637  3.87523e-05
