Time   Number   
ps   
0          26         121
10          29         118
20          28         121
30          27         115
40          29         116
50          32         112
60          30         116
70          31         110
80          27         113
90          35         112
100          28         111
110          32         115
120          30         119
130          31         120
140          31         118
150          30         119
160          26         122
170          31         119
180          30         118
190          31         115
200          30         112
210          30         116
220          28         114
230          26         120
240          30         118
250          31         118
260          30         117
270          26         115
280          26         114
290          29         119
300          24         116
310          28         108
320          32         111
330          29         113
340          31         120
350          29         121
360          27         124
370          31         113
380          29         119
390          30         117
400          29         119
410          31         120
420          31         120
430          31         123
440          30         118
450          31         118
460          31         125
470          27         123
480          29         119
490          29         115
500          29         122
510          28         119
520          31         114
530          28         121
540          27         115
550          29         111
560          30         111
570          28         120
580          30         127
590          28         123
600          27         125
610          28         120
620          27         123
630          29         119
640          29         112
650          29         124
660          32         112
670          29         117
680          28         119
690          28         123
700          27         123
710          28         125
720          28         109
730          28         126
740          28         117
750          30         113
760          28         111
770          30         123
780          28         106
790          29         114
800          26         119
810          26         118
820          29         118
830          29         122
840          27         115
850          27         121
860          27         129
870          32         124
880          29         121
890          30         118
900          32         119
910          29         122
920          30         116
930          29         114
940          28         124
950          31         118
960          28         130
970          30         120
980          31         126
990          30         120
1000          30         119
1010          32         122
1020          29         117
1030          28         122
1040          30         114
1050          29         118
1060          29         122
1070          27         118
1080          30         121
1090          31         126
1100          27         120
1110          33         125
1120          30         117
1130          27         124
1140          29         114
1150          30         112
1160          28         123
1170          28         111
1180          29         126
1190          29         117
1200          27         124
1210          29         129
1220          31         122
1230          32         120
1240          36         120
1250          30         130
1260          30         126
1270          30         122
1280          30         121
1290          28         122
1300          27         123
1310          32         116
1320          30         128
1330          28         121
1340          31         115
1350          31         131
1360          28         124
1370          29         124
1380          31         120
1390          31         134
1400          30         128
1410          31         130
1420          32         132
1430          33         120
1440          30         132
1450          31         123
1460          30         123
1470          32         129
1480          33         126
1490          32         132
1500          30         126
1510          29         120
1520          32         131
1530          29         125
1540          31         123
1550          29         134
1560          30         123
1570          31         119
1580          32         117
1590          32         121
1600          32         121
1610          30         120
1620          28         122
1630          29         118
1640          28         115
1650          28         113
1660          29         118
1670          26         119
1680          28         118
1690          28         111
1700          28         107
1710          29         115
1720          30         111
1730          30         121
1740          31         112
1750          30         119
1760          29         117
1770          27         122
1780          28         122
1790          29         115
1800          28         122
1810          30         120
1820          27         120
1830          24         127
1840          28         125
1850          28         120
1860          28         118
1870          28         123
1880          28         120
1890          28         122
1900          29         121
1910          29         121
1920          32         119
1930          29         127
1940          31         123
1950          29         121
1960          31         125
1970          27         123
1980          28         114
1990          29         113
2000          30         123
2010          29         125
2020          29         118
2030          28         116
2040          26         113
2050          29         114
2060          26         126
2070          24         115
2080          28         121
2090          27         119
2100          27         124
2110          29         118
2120          27         123
2130          26         128
2140          27         122
2150          29         120
2160          26         123
2170          28         123
2180          26         128
2190          28         120
2200          31         127
2210          31         127
2220          31         112
2230          29         123
2240          30         123
2250          26         121
2260          30         119
2270          25         124
2280          28         118
2290          28         114
2300          27         111
2310          25         120
2320          27         117
2330          29         121
2340          30         119
2350          30         123
2360          28         123
2370          31         114
2380          27         115
2390          27         121
2400          27         114
2410          30         110
2420          30         108
2430          26         113
2440          28         117
2450          24         111
2460          27         125
2470          27         120
2480          29         123
2490          26         118
2500          29         111
2510          28         119
2520          31         118
2530          24         115
2540          29         113
2550          25         113
2560          28         115
2570          31         120
2580          27         114
2590          30         115
2600          28         120
2610          29         119
2620          25         117
2630          25         124
2640          28         111
2650          28         119
2660          28         128
2670          28         116
2680          27         119
2690          30         118
2700          31         117
2710          30         119
2720          29         116
2730          27         120
2740          27         111
2750          25         125
2760          28         116
2770          26         116
2780          28         118
2790          29         110
2800          28         114
2810          28         115
2820          27         123
2830          29         119
2840          29         121
2850          29         120
2860          29         117
2870          29         118
2880          28         120
2890          29         114
2900          29         112
2910          28         118
2920          33         119
2930          29         111
2940          34         110
2950          31         115
2960          28         116
2970          29         121
2980          31         110
2990          29         117
3000          31         118
3010          30         116
3020          34         115
3030          29         125
3040          31         123
3050          30         121
3060          29         124
3070          33         124
3080          34         120
3090          33         118
3100          32         121
3110          28         115
3120          30         126
3130          32         118
3140          27         124
3150          28         126
3160          31         128
3170          32         118
3180          29         122
3190          27         127
3200          28         126
3210          27         128
3220          27         122
3230          29         118
3240          27         126
3250          30         125
3260          28         120
3270          30         123
3280          28         127
3290          29         114
3300          30         125
3310          29         125
3320          29         124
3330          29         126
3340          31         122
3350          27         122
3360          31         119
3370          30         118
3380          31         119
3390          33         129
3400          29         131
3410          28         118
3420          26         122
3430          30         121
3440          29         116
3450          26         121
3460          31         122
3470          29         120
3480          29         121
3490          28         128
3500          27         120
3510          27         120
3520          30         120
3530          30         123
3540          29         120
3550          26         122
3560          28         123
3570          29         125
3580          27         114
3590          27         119
3600          27         122
3610          23         116
3620          27         118
3630          27         115
3640          29         116
3650          29         120
3660          31         120
3670          30         124
3680          30         128
3690          29         122
3700          28         118
3710          31         114
3720          28         134
3730          27         119
3740          29         123
3750          30         126
3760          28         124
3770          27         124
3780          28         117
3790          32         121
3800          32         117
3810          26         127
3820          27         120
3830          30         117
3840          27         123
3850          28         129
3860          32         120
3870          27         120
3880          28         121
3890          29         116
3900          30         118
3910          30         115
3920          29         116
3930          28         114
3940          30         122
3950          28         117
3960          28         117
3970          29         125
3980          29         121
3990          27         120
4000          27         121
4010          30         113
4020          28         121
4030          28         111
4040          27         119
4050          27         121
4060          27         120
4070          27         115
4080          27         124
4090          29         118
4100          27         120
4110          28         115
4120          27         122
4130          30         116
4140          28         113
4150          31         117
4160          30         120
4170          29         119
4180          28         118
4190          30         123
4200          31         118
4210          27         116
4220          28         124
4230          32         117
4240          31         113
4250          28         122
4260          26         123
4270          26         127
4280          29         125
4290          25         133
4300          29         126
4310          27         122
4320          28         126
4330          24         129
4340          32         132
4350          30         123
4360          26         132
4370          29         130
4380          29         119
4390          27         126
4400          27         121
4410          30         124
4420          27         121
4430          31         116
4440          28         121
4450          28         121
4460          31         118
4470          27         118
4480          29         114
4490          24         129
4500          27         122
4510          29         122
4520          31         118
4530          29         128
4540          28         115
4550          29         117
4560          29         129
4570          28         117
4580          30         119
4590          28         125
4600          26         125
4610          26         116
4620          30         130
4630          25         122
4640          26         129
4650          23         118
4660          27         119
4670          28         117
4680          29         126
4690          26         116
4700          29         121
4710          26         121
4720          29         122
4730          27         118
4740          26         119
4750          27         119
4760          27         118
4770          28         119
4780          29         114
4790          31         107
4800          29         118
4810          29         113
4820          27         121
4830          27         123
4840          30         111
4850          27         125
4860          25         122
4870          29         111
4880          30         121
4890          28         127
4900          29         119
4910          27         114
4920          29         115
4930          32         118
4940          31         116
4950          29         115
4960          31         117
4970          30         113
4980          29         121
4990          28         114
5000          28         117
5010          27         123
5020          30         112
5030          28         119
5040          28         121
5050          29         115
5060          29         118
5070          27         120
5080          30         117
5090          29         112
5100          29         117
5110          27         112
5120          28         114
5130          26         116
5140          27         116
5150          29         117
5160          26         125
5170          27         115
5180          28         113
5190          27         121
5200          30         121
5210          29         117
5220          26         117
5230          26         117
5240          29         113
5250          27         119
5260          29         114
5270          27         124
5280          29         117
5290          27         117
5300          30         116
5310          26         120
5320          27         120
5330          29         116
5340          29         125
5350          29         118
5360          27         126
5370          28         123
5380          27         118
5390          28         117
5400          30         118
5410          28         117
5420          28         127
5430          28         121
5440          26         125
5450          27         124
5460          30         120
5470          29         128
5480          30         117
5490          27         122
5500          28         123
5510          30         121
5520          24         120
5530          28         116
5540          28         113
5550          31         122
5560          26         115
5570          29         114
5580          31         130
5590          26         110
5600          26         120
5610          29         115
5620          31         120
5630          28         116
5640          28         117
5650          31         113
5660          31         118
5670          29         115
5680          28         119
5690          29         119
5700          29         117
5710          29         111
5720          28         122
5730          27         125
5740          28         126
5750          27         122
5760          29         124
5770          28         115
5780          33         113
5790          33         113
5800          30         126
5810          32         116
5820          28         115
5830          31         121
5840          29         121
5850          28         113
5860          29         116
5870          27         120
5880          25         117
5890          25         118
5900          29         118
5910          31         116
5920          31         117
5930          27         118
5940          29         124
5950          27         122
5960          26         119
5970          26         114
5980          30         116
5990          28         121
6000          28         116
6010          27         117
6020          27         123
6030          27         119
6040          27         120
6050          27         128
6060          27         120
6070          27         116
6080          27         116
6090          27         109
6100          26         125
6110          27         121
6120          27         116
6130          27         111
6140          26         120
6150          27         114
6160          24         121
6170          29         121
6180          29         119
6190          29         119
6200          26         119
6210          27         118
6220          27         125
6230          26         138
6240          26         125
6250          28         120
6260          26         123
6270          28         121
6280          30         130
6290          26         123
6300          28         127
6310          25         115
6320          27         124
6330          30         126
6340          26         114
6350          28         116
6360          25         127
6370          26         119
6380          28         122
6390          28         129
6400          29         125
6410          28         118
6420          27         119
6430          28         119
6440          26         117
6450          25         116
6460          27         123
6470          24         120
6480          25         116
6490          25         116
6500          26         113
6510          26         119
6520          21         116
6530          27         120
6540          27         116
6550          27         115
6560          25         115
6570          25         118
6580          25         112
6590          27         112
6600          28         112
6610          28         112
6620          26         116
6630          29         122
6640          27         110
6650          30         115
6660          25         113
6670          28         107
6680          27         111
6690          25         110
6700          28         117
6710          27         112
6720          26         114
6730          25         116
6740          27         115
6750          28         114
6760          27         116
6770          28         111
6780          26         113
6790          27         112
6800          29         112
6810          28         109
6820          26         119
6830          27         113
6840          27         112
6850          26         108
6860          27         111
6870          25         117
6880          23         125
6890          25         113
6900          27         116
6910          27         119
6920          26         112
6930          26         119
6940          26         119
6950          27         113
6960          24         114
6970          26         117
6980          26         118
6990          24         114
7000          25         118
7010          27         121
7020          22         125
7030          22         116
7040          25         119
7050          27         119
7060          25         119
7070          28         119
7080          27         118
7090          25         114
7100          25         116
7110          26         114
7120          26         122
7130          23         120
7140          27         120
7150          26         115
7160          28         126
7170          23         122
7180          25         119
7190          27         118
7200          25         125
7210          26         120
7220          24         117
7230          28         122
7240          25         113
7250          23         119
7260          26         120
7270          22         122
7280          27         124
7290          27         127
7300          27         120
7310          26         114
7320          26         117
7330          28         119
7340          25         123
7350          26         117
7360          28         119
7370          23         120
7380          26         121
7390          26         121
7400          24         123
7410          24         122
7420          26         126
7430          27         117
7440          27         116
7450          25         120
7460          26         120
7470          27         111
7480          25         112
7490          22         121
7500          26         115
7510          24         115
7520          22         115
7530          27         123
7540          26         119
7550          25         114
7560          23         116
7570          25         114
7580          25         114
7590          27         112
7600          25         121
7610          25         129
7620          27         122
7630          28         116
7640          25         122
7650          28         125
7660          25         122
7670          25         122
7680          29         127
7690          28         128
7700          26         129
7710          26         121
7720          29         117
7730          26         114
7740          25         119
7750          24         116
7760          31         120
7770          25         117
7780          30         127
7790          28         118
7800          29         123
7810          30         121
7820          25         122
7830          25         119
7840          25         119
7850          28         122
7860          27         120
7870          28         125
7880          27         126
7890          27         133
7900          27         117
7910          26         123
7920          27         124
7930          30         123
7940          26         116
7950          27         123
7960          26         124
7970          29         116
7980          25         120
7990          28         113
8000          29         114
8010          29         132
8020          31         118
8030          30         121
8040          29         121
8050          31         113
8060          30         118
8070          28         121
8080          28         116
8090          29         116
8100          28         123
8110          30         125
8120          29         124
8130          32         118
8140          32         128
8150          31         128
8160          32         126
8170          29         118
8180          27         127
8190          29         128
8200          30         117
8210          30         119
8220          29         110
8230          29         123
8240          28         120
8250          31         127
8260          30         124
8270          30         119
8280          26         114
8290          30         107
8300          28         122
8310          29         117
8320          29         124
8330          28         118
8340          30         116
8350          32         109
8360          30         125
8370          28         118
8380          30         115
8390          31         122
8400          29         122
8410          30         121
8420          27         115
8430          28         124
8440          26         116
8450          27         119
8460          30         135
8470          34         119
8480          30         118
8490          32         120
8500          32         118
8510          28         130
8520          32         116
8530          33         109
8540          28         120
8550          29         126
8560          31         130
8570          30         127
8580          32         120
8590          30         122
8600          30         124
8610          29         125
8620          32         118
8630          30         122
8640          33         121
8650          30         113
8660          32         112
8670          28         118
8680          28         117
8690          29         116
8700          29         119
8710          28         118
8720          28         115
8730          30         119
8740          29         126
8750          29         115
8760          30         118
8770          31         125
8780          31         122
8790          30         124
8800          30         121
8810          30         118
8820          29         119
8830          31         119
8840          31         123
8850          34         113
8860          28         119
8870          28         117
8880          30         113
8890          28         120
8900          28         127
8910          26         122
8920          28         124
8930          28         111
8940          33         120
8950          27         120
8960          28         115
8970          26         116
8980          30         120
8990          29         122
9000          29         123
9010          27         125
9020          30         123
9030          26         123
9040          28         118
9050          29         120
9060          30         122
9070          28         127
9080          28         131
9090          31         125
9100          28         117
9110          28         119
9120          31         120
9130          32         115
9140          29         124
9150          33         113
9160          33         119
9170          30         130
9180          28         123
9190          32         127
9200          31         121
9210          31         122
9220          29         124
9230          28         131
9240          29         122
9250          30         125
9260          31         126
9270          31         117
9280          29         121
9290          30         117
9300          27         124
9310          30         129
9320          31         127
9330          32         117
9340          31         119
9350          27         123
9360          25         119
9370          30         125
9380          28         122
9390          30         121
9400          27         126
9410          31         121
9420          29         128
9430          27         122
9440          29         125
9450          29         125
9460          28         122
9470          26         121
9480          28         123
9490          27         125
9500          28         124
9510          30         115
9520          27         133
9530          29         122
9540          30         118
9550          29         126
9560          29         129
9570          30         116
9580          31         117
9590          29         119
9600          30         117
9610          31         121
9620          28         127
9630          29         116
9640          28         117
9650          30         116
9660          30         127
9670          29         127
9680          25         134
9690          31         116
9700          28         126
9710          28         123
9720          32         123
9730          29         116
9740          26         119
9750          31         127
9760          33         127
9770          31         125
9780          33         117
9790          31         118
9800          29         124
9810          28         122
9820          30         120
9830          32         121
9840          27         119
9850          29         128
9860          31         120
9870          32         122
9880          33         116
9890          33         127
9900          29         117
9910          31         122
9920          32         123
9930          30         127
9940          32         126
9950          30         128
9960          33         126
9970          33         130
9980          30         120
9990          30         127
10000          31         127
