Time   C(t)   
ps   
0           1           1  1.82711e-10   0.0351788
10    0.662088    0.665093    -1.99639    0.021241
20     0.57518    0.578958     2.29926  0.00730326
30    0.516023    0.520327      1.1424  0.00573711
40    0.460437    0.465236     1.21001  0.00486827
50    0.418657    0.423828     1.42013  0.00370241
60    0.386389    0.391847     4.21064   0.0033759
70    0.351139     0.35691     2.84555  0.00327574
80    0.320875    0.326915     3.48831  0.00278351
90    0.295469    0.301735     2.98211  0.00238255
100    0.273224    0.279687      4.4139  0.00213746
110     0.25272    0.259366     2.04461  0.00209187
120    0.231386    0.238222     2.54646  0.00174528
130    0.217814    0.224771     1.75392  0.00149118
140    0.201563    0.208664     1.25144   0.0012897
150     0.19202    0.199206     2.10942  0.00101618
160    0.181239    0.188521     2.61057  0.00109724
170    0.170075    0.177457     1.10354  0.00107432
180    0.159753    0.167226     2.03347  0.00105493
190    0.148977    0.156546    0.813831  0.000999362
200    0.139765    0.147416     1.52889  0.000990657
210    0.129164    0.136909    0.094853  0.000808396
220    0.123597    0.131392     1.02584  0.000474029
230    0.119683    0.127512     3.10438  0.000583661
240    0.111924    0.119823     2.81712  0.000689745
250    0.105888     0.11384     2.88831  0.000575183
260    0.100421    0.108421     3.81887  0.000590912
270     0.09407    0.102127     2.74286  0.000483051
280   0.0907596   0.0988461     2.81278  0.000447819
290   0.0851136   0.0932504     2.23855  0.000510544
300   0.0805487    0.088726     1.44965  0.000478827
310   0.0755371    0.083759     2.59664  0.000443294
320   0.0716828    0.079939     1.23316  0.000462545
330   0.0662862   0.0745904     1.37616  0.000478056
340   0.0621217   0.0704629    0.586905  0.000420537
350   0.0578755   0.0662545     1.51929  0.000337112
360   0.0553795   0.0637807    0.514671  0.00026453
370   0.0525849   0.0610109     0.29951  0.000257719
380   0.0502251   0.0586721    -1.13606  0.000276665
390   0.0470516   0.0555268    0.298179  0.000306636
400   0.0440924   0.0525939   0.0828082  0.000259396
410   0.0418637   0.0503851     1.01436  0.000193598
420   0.0402204   0.0487564     1.22966  0.000227256
430   0.0373185   0.0458804    0.584664  0.000249836
440   0.0352237   0.0438041     1.58761  0.000183813
450   0.0336423   0.0422368   -0.276751  7.31355e-05
460    0.033761   0.0423544   -0.994398  0.000125276
470   0.0311367   0.0397536   -0.205427   0.0002293
480    0.029175   0.0378092    0.655007  0.000107228
490   0.0289922   0.0376281    -1.56891  6.66415e-05
500   0.0278421   0.0364882    -1.35459  6.30077e-05
510    0.027732   0.0363791   -0.996079  4.08347e-05
520   0.0270254   0.0356788    -1.49821  8.56582e-05
530   0.0260189   0.0346812    -1.28347  0.000186652
540   0.0232924    0.031979      -1.857  0.000194433
550   0.0221302   0.0308271    -1.49905  5.64602e-05
560   0.0221632   0.0308598    -1.42759  2.66719e-05
570   0.0215968   0.0302984     -1.4278  0.000109206
580   0.0199791   0.0286951    -2.14447  0.000154432
590   0.0185081   0.0272372    -1.50011  0.000117186
600   0.0176353   0.0263722    -2.07363  0.00010242
610   0.0164597   0.0252071    -1.78652  0.000113919
620    0.015357   0.0241141    -1.21376  8.02332e-05
630   0.0148551   0.0236167   -0.998669  4.26927e-05
640   0.0145031   0.0232678   -0.281863  1.63432e-05
650   0.0145282   0.0232927   -0.711695  3.90932e-05
660   0.0137212   0.0224929   -0.926856  5.04918e-05
670   0.0135184   0.0222919    -0.99881  4.30517e-05
680   0.0128602   0.0216396   -0.998669  3.55304e-05
690   0.0128078   0.0215876    -1.35774  -2.51393e-05
700    0.013363   0.0221379    -1.21383  9.06372e-06
710   0.0126265   0.0214079    -0.42507  2.04335e-05
720   0.0129543   0.0217328    0.148669  -2.33045e-06
730   0.0126731   0.0214541  0.00476185  2.81531e-05
740   0.0123913   0.0211748    0.291666  2.05763e-05
750   0.0122616   0.0210462  -0.0668419  3.20988e-05
760   0.0117493   0.0205385    0.578571  2.06641e-05
770   0.0118483   0.0206366   -0.282423   1.308e-05
780   0.0114877   0.0202792     0.36341  7.44563e-05
790   0.0103592   0.0191607    0.434874  5.92157e-05
800   0.0103034   0.0191055    0.219923  -1.36367e-05
810   0.0106319   0.0194311    0.291036  -9.79672e-06
820   0.0104993   0.0192996    0.147619  5.17988e-05
830  0.00959591   0.0184043   -0.067472  0.000105864
840  0.00838202   0.0172012    0.147759  4.81635e-05
850  0.00863264   0.0174496   0.0756653  -9.62927e-06
860   0.0085746   0.0173921    0.649195  9.67993e-06
870  0.00843904   0.0172577     1.36635  6.3929e-05
880  0.00729602   0.0161249    0.434174  3.68683e-05
890  0.00770168   0.0165269    0.935959  2.15053e-05
900  0.00686592   0.0156986    0.649195  3.70303e-05
910  0.00696107   0.0157929    0.290686  -1.74432e-06
920   0.0069008   0.0157332   -0.569958  3.32981e-05
930  0.00629511   0.0151328   -0.283333  4.11409e-05
940  0.00607799   0.0149177   -0.283263  1.78315e-05
950  0.00593848   0.0147794   -0.713445  2.17828e-05
960  0.00564233   0.0144859    -1.28733  -1.73007e-05
970  0.00628449   0.0151223    -1.43088  -5.53697e-06
980  0.00575307   0.0145956   -0.427031  1.00693e-05
990   0.0060831   0.0149227  0.00301118  6.21448e-06
1000  0.00562878   0.0144724    0.289846  3.76228e-05
1010  0.00533065    0.014177    0.433613  -1.62602e-06
1020   0.0056613   0.0145047    0.289846  1.02206e-05
1030  0.00512624   0.0139744    0.935539  2.99095e-05
1040  0.00506311   0.0139118     0.36159  -1.34174e-05
1050  0.00539458   0.0142403     1.43711  -3.3184e-05
1060  0.00572679   0.0145696     0.36152  -5.30386e-05
1070  0.00645536   0.0152917    0.289496  1.81553e-05
1080  0.00536368   0.0142097  -0.0684524  -1.7314e-06
1090  0.00648998    0.015326    0.791422  3.01446e-05
1100  0.00476079   0.0136122     0.36173  4.1974e-05
1110   0.0056505    0.014494       1.509  -3.73522e-05
1120  0.00550784   0.0143526    0.935539  -5.63168e-06
1130  0.00576314   0.0146056    0.146429  2.22895e-05
1140  0.00506205   0.0139108   -0.283893  2.32693e-06
1150   0.0057166   0.0145595    0.217682  1.4398e-05
1160  0.00477409   0.0136254     1.15021  6.23507e-05
1170  0.00446958   0.0133236    0.504867  -1.3575e-05
1180  0.00504559   0.0138944    0.433123  -5.53585e-06
1190   0.0045803   0.0134333    0.361379  1.84799e-05
1200  0.00467599   0.0135281    0.361169  -3.3695e-05
1210   0.0052542   0.0141012    0.145938  -2.97209e-05
1220  0.00527041   0.0141173    0.432773  -2.17638e-05
1230  0.00568948   0.0145326    0.647864  6.43977e-06
1240  0.00514161   0.0139896    0.719678  5.08119e-05
1250  0.00467324   0.0135254    0.146078  3.07221e-05
1260  0.00452717   0.0133806   -0.284104  6.53032e-06
1270  0.00454263    0.013396   0.0746149  -2.9908e-05
1280  0.00512533   0.0139735   -0.427521    -3.4e-05
1290  0.00522263   0.0140699  0.00266103  4.71077e-05
1300  0.00418317   0.0130397    0.433263  7.9674e-05
1310  0.00362915   0.0124906    0.791912  1.06948e-05
1320  0.00396928   0.0128277     1.36565  -3.40519e-05
1330  0.00431019   0.0131656    0.217892  2.58461e-06
1340  0.00391759   0.0127765    0.863375  1.07171e-05
1350  0.00409585   0.0129531     0.57626  1.48639e-05
1360  0.00362031   0.0124818   -0.570798  1.48602e-05
1370  0.00379865   0.0126586   -0.570798  -9.65813e-06
1380  0.00381347   0.0126733   -0.929166  -9.68983e-06
1390  0.00399244   0.0128507   -0.355497  -2.61341e-05
1400  0.00433615   0.0131913  0.00315131  -4.6749e-05
1410  0.00492742   0.0137773    0.433263  6.68375e-06
1420  0.00420248   0.0130588   0.0746149  4.37232e-05
1430  0.00405296   0.0129106  0.00315116  1.08422e-05
1440  0.00398563   0.0128439    0.218382  -1.39196e-05
1450  0.00433135   0.0131866   -0.140196  -1.8065e-05
1460  0.00434693    0.013202   -0.355147  -5.70137e-06
1470  0.00444538   0.0132996    0.935399  2.33159e-05
1480  0.00388062   0.0127398      1.2223  8.14507e-05
1490  0.00281637    0.011685      1.1507  4.42063e-05
1500  0.00299649   0.0118636      1.2937  2.77395e-05
1510  0.00226158   0.0111352    0.648144  2.35849e-05
1520  0.00252479   0.0113961    0.361309  2.84455e-06
1530  0.00220469   0.0110788    0.935049  4.45759e-05
1540  0.00163327   0.0105125     1.07805  7.81131e-05
1550  0.000642423  0.00953043     1.36523  4.89729e-05
1560  0.000653815  0.00954172        1.15  -5.33123e-06
1570  0.000749048  0.00963611     1.43683  -1.79264e-05
1580  0.00101234  0.00989706    0.934559  -9.55758e-06
1590  0.000940199  0.00982556      1.0784  -3.06289e-05
1600  0.00162492   0.0105042    0.934559  -3.06568e-05
1610  0.00155334   0.0104332   0.0739144  -9.69613e-06
1620  0.00181884   0.0106964    0.432283  -3.92451e-05
1630  0.00233824   0.0112112    0.791141  -9.74275e-06
1640   0.0020137   0.0108895    0.145588  1.97998e-05
1650  0.00194224   0.0108187   -0.428291  -3.09693e-05
1660  0.00263309   0.0115034    -0.21306  -1.40335e-05
1670  0.00222291   0.0110969    0.289075  4.95591e-05
1680   0.0016419    0.010521    0.360539  -3.9609e-05
1690  0.00301509    0.011882  -0.0699928  -3.53303e-05
1700  0.00234851   0.0112213    0.504026  5.82155e-05
1710  0.00185078    0.010728   0.0738447  4.98328e-05
1720  0.00135185   0.0102336    0.145588  2.43223e-05
1730  0.00136434   0.0102459  -0.0695029  7.3039e-06
1740  0.00120577   0.0100888   -0.356197  2.01579e-05
1750  0.000961179  0.00984635   0.0741245  3.05198e-06
1760  0.00114473   0.0100283  0.00280107  -1.83777e-05
1770  0.00132873   0.0102106   -0.284664  -2.7018e-05
1780  0.00168509   0.0105638  0.00224084  -1.25471e-06
1790  0.00135383   0.0102355    0.504447  2.45503e-05
1800  0.00119409   0.0100772    0.432493  -5.57469e-06
1810  0.00146532    0.010346  0.00182069  7.39467e-06
1820   0.0010462  0.00993062    0.360539  4.62879e-05
1830  0.000539561  0.00942849    0.647374  1.17603e-05
1840  0.00081099   0.0096975     1.22076  2.91758e-05
1850  -4.39554e-05  0.00885016    0.718907  7.25794e-05
1860  -0.000640598  0.00825882    0.503676  3.36651e-05
1870  -0.000717258  0.00818285    0.360189  7.67545e-06
1880  -0.000794107  0.00810668    0.288445  1.64063e-05
1890  -0.00104538  0.00785764    0.432283  -1.8456e-05
1900  -0.000424986  0.00847252     0.57549  -3.59151e-05
1910  -0.000327082  0.00856955    0.360329  -9.8026e-06
1920  -0.000228934  0.00866683    0.145378  -4.0471e-05
1930  0.000482338  0.00937177    0.431723  3.29837e-06
1940  -0.000294902  0.00860145    0.216632  5.58771e-05
1950  -0.000635205  0.00826417    0.288586  3.8467e-05
1960  -0.00106424  0.00783895    0.503676  2.97583e-05
1970  -0.00123037   0.0076743    0.431513  2.54437e-05
1980  -0.00157312   0.0073346    0.216562  4.31383e-05
1990  -0.00209314   0.0068192    0.360119  2.11552e-05
2000  -0.00199622  0.00691526    0.359979  -2.29688e-05
2010  -0.00163376  0.00727449    0.359909  -5.30146e-06
2020  -0.00189019  0.00702035    0.503396  2.56748e-05
2030  -0.00214726  0.00676556   -0.142087  3.5484e-06
2040  -0.00196116  0.00695001    0.216562  8.02907e-06
2050  -0.00230784  0.00660641   -0.213691  3.91613e-05
2060  -0.00274438  0.00617375    0.216702  -5.2955e-06
2070  -0.00220193  0.00671138   0.0731444  8.13475e-06
2080  -0.00290708   0.0060125    0.144958  2.14752e-05
2090  -0.00263143  0.00628569  -0.0703431  -9.71154e-06
2100  -0.00271285    0.006205   -0.285294  8.15135e-06
2110  -0.00279446  0.00612412  0.00133053  -2.76941e-05
2120  -0.00215897  0.00675396    0.502976  -4.56748e-05
2130  -0.00188097  0.00702949    0.359769  3.95849e-05
2140  -0.00295066   0.0059693    0.144608  9.81055e-05
2150  -0.00384308  0.00508483   0.0731444  4.87994e-05
2160  -0.00392665    0.005002    0.503326  3.85634e-06
2170  -0.0039202  0.00500839    0.216212  4.45312e-05
2180  -0.00481728  0.00411929    0.216492  5.36347e-05
2190  -0.0049929  0.00394523    0.359839  -1.41204e-05
2200  -0.00453487  0.00439919    0.503116  -5.04632e-06
2210  -0.00489197  0.00404526    0.646744  1.75931e-05
2220  -0.00488673  0.00405046    0.861765  4.02164e-06
2230  -0.0049724  0.00396554    0.933578  -3.2395e-05
2240  -0.00423883  0.00469259     1.07693  -2.33087e-05
2250  -0.00450623  0.00442757     1.36397  2.67744e-05
2260  -0.00477432  0.00416187     1.22041  4.05547e-05
2270  -0.00531732  0.00362369     1.22041  2.69133e-05
2280  -0.00531258  0.00362839     1.50732  -1.88029e-05
2290  -0.00494126  0.00399641     1.65046  -4.75463e-07
2300  -0.00530308  0.00363781     1.79422  4.5416e-05
2310  -0.00584958  0.00309616      1.4355  3.63222e-05
2320  -0.00602952  0.00291783     1.72234  -9.61928e-06
2330  -0.0056572  0.00328684      1.1486  -3.72807e-05
2340  -0.0052839  0.00365681     1.57878  -4.19959e-05
2350  -0.00481728  0.00411929     1.29188  -5.10693e-06
2360  -0.00518177  0.00375804     1.29195  -9.80496e-06
2370  -0.00462118  0.00431364     1.00511  -5.1496e-05
2380  -0.00415185   0.0047788     1.22048  -4.2353e-05
2390  -0.00377412  0.00515317     1.50711  2.26076e-05
2400   -0.004604  0.00433067     1.36362  3.65516e-05
2410  -0.00450515  0.00442864     1.50739  1.80665e-05
2420  -0.00496533  0.00397256     1.00539  3.20777e-05
2430  -0.00514671  0.00379279    0.646744  2.75081e-05
2440  -0.00551549  0.00342729    0.646814  1.35308e-05
2450  -0.00541732  0.00352458    0.216352  -9.82957e-06
2460  -0.0053189  0.00362213    0.431443  -1.92388e-05
2470  -0.00503255  0.00390594    0.359559  -1.45797e-05
2480  -0.00502731  0.00391113     0.57472  -9.9333e-06
2490  -0.00483388  0.00410283    0.502906  -9.94718e-06
2500  -0.00482836  0.00410831    0.646533  -1.94195e-05
2510  -0.00444549  0.00448777    0.359699  -2.88922e-05
2520  -0.00425052  0.00468101   -0.214041  -1.47943e-05
2530  -0.00414961  0.00478102  0.00105051  2.30452e-05
2540  -0.00471142   0.0042242    0.288095  4.20309e-05
2550  -0.00499022  0.00394788    0.144608  -5.7295e-07
2560  -0.00469996  0.00423556    0.287745  -2.43102e-05
2570  -0.00450402  0.00442976  -0.0708334  -5.75837e-07
2580  -0.00468845  0.00424698    0.359699  -1.96737e-05
2590  -0.00411055  0.00481974   -0.213901  -7.69645e-05
2600  -0.00314916  0.00577258   -0.142507  -3.89024e-05
2610  -0.0033325  0.00559086    0.717997  1.83589e-05
2620  -0.00351634  0.00540866    0.717997  -1.03525e-05
2630  -0.00312545  0.00579607    0.359489  -7.41484e-07
2640  -0.00350151  0.00542336    0.216352  -2.96347e-05
2650  -0.00253275   0.0063835  -0.0705532  -5.36896e-05
2660  -0.00242771   0.0064876   -0.214111  1.83999e-05
2670  -0.00290075  0.00601877  -0.0706231  2.80632e-05
2680  -0.00298898  0.00593133    0.216071  8.83498e-06
2690  -0.00307745  0.00584364    0.144398  2.82171e-05
2700  -0.00355332  0.00537201   -0.285714  -5.65494e-06
2710  -0.00296435  0.00595574   -0.644433  -7.44557e-07
2720  -0.00353843  0.00538677   -0.429342  2.83301e-05
2730  -0.00353095  0.00539417   -0.429412  1.87159e-05
2740  -0.00391275  0.00501578    0.072374  3.33593e-05
2750  -0.00419814  0.00473292    0.359419  4.18071e-06
2760  -0.00399636  0.00493291   0.0725142  4.22578e-06
2770  -0.00428265  0.00464916   -0.214391  3.35624e-05
2780  -0.00466761  0.00426763    0.144118  1.8949e-05
2790  -0.00466163  0.00427355  -0.0710435  9.21527e-06
2800  -0.00485191  0.00408496    0.215931  1.41409e-05
2810  -0.00494445  0.00399325    0.502766  -2.02555e-05
2820  -0.0044468  0.00448647    0.072444  -3.01253e-05
2830  -0.00434195  0.00459039   -0.142507  -2.53026e-05
2840  -0.00394075  0.00498802   -0.429412  -3.02937e-05
2850  -0.00373607  0.00519088   -0.285994  -1.06008e-05
2860  -0.00372873  0.00519815   -0.214041  1.90848e-05
2870  -0.00411777  0.00481258    0.144468  1.91107e-05
2880  -0.00411095  0.00481934    0.144398  4.28595e-06
2890  -0.00420349  0.00472762    0.216142  -5.66079e-06
2900  -0.00399773  0.00493155   -0.070553  4.30993e-06
2910  -0.00428969  0.00464219   -0.285574  4.4206e-05
2920  -0.00488185  0.00405529   -0.500595  3.93127e-05
2930  -0.00507594  0.00386293   -0.142087  -1.05874e-05
2940  -0.0046701  0.00426516   -0.285574  -4.06416e-05
2950  -0.00426311  0.00466853   -0.644293  -3.5739e-05
2960  -0.00395532  0.00497358   -0.500945  -3.58476e-05
2970  -0.00354616  0.00537911   -0.286064  4.31784e-06
2980  -0.00404168  0.00488799   -0.214251  4.26559e-06
2990  -0.00363147  0.00529455   0.0727941  9.38908e-06
3000  -0.00422946  0.00470188   -0.214181  -5.81838e-06
3010  -0.0035151  0.00540989   -0.357528  -5.74104e-06
3020  -0.00411464  0.00481568   -0.500875  -7.83126e-07
3030  -0.00349944  0.00542541   -0.429132  3.48332e-05
3040  -0.0048113  0.00412521   -0.285714  3.47946e-05
3050  -0.00419533  0.00473571   -0.142367  -2.09618e-05
3060  -0.00439207  0.00454072   -0.500945  -2.10809e-05
3070  -0.00377371  0.00515357   -0.501225  -5.68196e-05
3080  -0.00325568    0.005667   -0.572969  -5.18787e-05
3090  -0.00273614  0.00618192   -0.286205  9.41139e-06
3100  -0.0034439  0.00548045   -0.142647  3.49869e-05
3110  -0.00343588  0.00548841  0.000700215  -5.93854e-06
3120  -0.00332513  0.00559817   -0.285994  -5.94853e-06
3130  -0.00331691  0.00560632   -0.357668  1.46262e-05
3140  -0.00361766  0.00530824   -0.214181  -8.25722e-07
3150  -0.00330039  0.00562268   0.0726541  4.38206e-06
3160  -0.0037053  0.00522138    0.216141  3.02046e-05
3170  -0.00390448  0.00502397  0.00105048  -1.63128e-05
3180  -0.00337904  0.00554474    0.144468  -3.70583e-05
3190  -0.00316332  0.00575854  -0.0705532  -1.64086e-05
3200  -0.00305087  0.00586999  -0.0708332  -4.76824e-05
3210  -0.00220967  0.00670371    0.216001  -3.21375e-05
3220  -0.00240812  0.00650702  0.000840371  -6.21737e-06
3230  -0.00208532  0.00682695    0.216212  -3.23275e-05
3240  -0.00176157  0.00714782   -0.214041  -5.85925e-05
3250  -0.000913473  0.00798838   -0.429342  -2.72779e-05
3260  -0.00121601  0.00768853   -0.214041  -1.19762e-06
3270  -0.000889521  0.00801212    0.287745  -5.37262e-05
3280  -0.000141486   0.0087535  -0.0708332  -6.46979e-06
3290  -0.000760125  0.00814036    0.144538  4.08647e-05
3300  -0.00095878  0.00794347    0.216141  9.33379e-06
3310  -0.000946801  0.00795534  0.000770334  -1.17771e-05
3320  -0.000723237  0.00817692    0.287605  -1.17966e-05
3330  -0.000710868  0.00818918    0.933228  -3.3066e-05
3340  -6.19174e-05  0.00883236    0.216001  -1.718e-05
3350  -0.000367268  0.00852972  -0.0710435  1.99399e-05
3360  -0.000460716  0.00843711    0.287815  4.03052e-06
3370  -0.000447879  0.00844983    0.144468  -1.2859e-06
3380  -0.000434998   0.0084626    0.431372  -1.19794e-05
3390  -0.00020829  0.00868729    0.789951  3.61756e-05
3400  -0.00115851  0.00774552    0.431583  5.22789e-05
3410  -0.00125387  0.00765101    0.144608  -6.55692e-06
3420  -0.00102737  0.00787549   0.0726539  -4.41926e-05
3430  -0.000370016    0.008527    0.216351  -6.58358e-05
3440  0.000289344   0.0091805    0.718417  -8.22177e-05
3450  0.00127434   0.0101567    0.646814  -7.16406e-05
3460  0.00172216   0.0106006    0.360119  -3.40301e-05
3470  0.00195494   0.0108313    0.216702  -2.87325e-05
3480  0.00229681   0.0111701   -0.213691  -7.10563e-06
3490  0.00209705   0.0109721    -0.21355  -1.73395e-06
3500  0.00233149   0.0112045   -0.356898  -1.25926e-05
3510   0.0023489   0.0112217   -0.142017  -7.1964e-06
3520  0.00247541   0.0113471   0.0731444  -1.75015e-06
3530  0.00238391   0.0112564    0.288095  -1.77233e-06
3540  0.00251086   0.0113823    0.359769  3.71638e-06
3550  0.00230958   0.0111828       0.575  3.70239e-06
3560  0.00243681   0.0113089     0.57514  -1.27431e-05
3570  0.00256444   0.0114354    0.288375  -2.37887e-05
3580  0.00291259   0.0117804    0.718417  -2.38457e-05
3590  0.00304136    0.011908    0.503396  -4.04974e-05
3600  0.00372254   0.0125832    0.646954  -7.37531e-05
3610  0.00451642     0.01337    0.503396  -2.41392e-05
3620  0.00420532   0.0130616    0.503606  8.9746e-06
3630  0.00433693   0.0131921    0.503466  1.45919e-05
3640  0.00391348   0.0127724     0.57521  3.68482e-05
3650  0.00359996   0.0124617    0.718628  3.14008e-05
3660  0.00328546     0.01215    0.933718  4.26622e-05
