Time   C(t)   
ps   
0           1           1  3.88741e-10   0.0184823
10    0.818254    0.850777     -0.4308   0.0102989
20    0.794022    0.830881    -0.59573  0.00211551
30    0.775944    0.816038  0.00555747  0.00164633
40    0.761096    0.803846   -0.213637  0.00142742
50    0.747396    0.792598   0.0318344  0.00126337
60    0.735828      0.7831     0.46894  0.00116444
70    0.724107    0.773477    0.659907  0.00111758
80    0.713477    0.764749    0.468433  0.00107887
90     0.70253     0.75576    0.768836  0.00108757
100    0.691725    0.746889   0.0574436  0.00103055
110    0.681919    0.738838    0.440072  0.000881201
120    0.674101    0.732419   -0.189978  0.000787473
130    0.666169    0.725906   -0.874666  0.000866625
140    0.656769    0.718188   -0.326467  0.000871593
150    0.648737    0.711594  -0.0534894  0.000757706
160    0.641615    0.705746   -0.820535  0.000741112
170    0.633915    0.699424   -0.957505  0.000815469
180    0.625305    0.692355   -0.683539  0.000833654
190    0.617242    0.685735    0.629702  0.00068264
200    0.611652    0.681145    0.108128  0.00069913
210    0.603259    0.674254    0.163781  0.000730389
220    0.597045    0.669151   -0.493454  0.000685349
230    0.589552       0.663    -1.06798  0.000681677
240    0.583411    0.657958   -0.549054  0.000633064
250    0.576891    0.652604    -1.15018  0.000585896
260    0.571693    0.648337   -0.221118  0.000465122
270    0.567589    0.644966   -0.331089  0.000588346
280    0.559926    0.638675    -0.05739  0.000589386
290    0.555801    0.635288    -1.12508  0.000506851
300    0.549789    0.630352   -0.659773  0.000595158
310    0.543898    0.625515    -1.78106  0.000433379
320    0.541122    0.623236   -0.742773  0.000424275
330    0.535412    0.618548    -1.39905  0.000495771
340    0.531206    0.615095    -1.15283  0.000480038
350    0.525811    0.610665    -1.29038  0.000438756
360    0.522431     0.60789    -1.15368  0.00045329
370    0.516746    0.603222   -0.962181  0.000484532
380    0.512741    0.599933   -0.168884  0.000385743
390    0.509031    0.596887    0.487309  0.00043745
400    0.503992     0.59275   -0.688749  0.000431496
410    0.500401    0.589802   -0.825826  0.000381505
420    0.496361    0.586485    -1.04574  0.000436681
430    0.491667    0.582631   -0.743841  0.000340559
440     0.48955    0.580893   -0.991049  0.000266428
450    0.486339    0.578256   -0.909386  0.000367561
460    0.482199    0.574857   -0.280111  0.000414395
470    0.478051    0.571451    -0.55357  0.000377665
480    0.474646    0.568655   -0.636355  0.000356242
490    0.470926    0.565601   -0.554344  0.000403212
500    0.466581    0.562034  -0.0886367  0.00041777
510    0.462571    0.558741    0.430586  0.000350013
520    0.459581    0.556286    0.293724  0.000292377
530    0.456723     0.55394    -1.51257  0.000365238
540    0.452276    0.550289   -0.582411  0.000439949
550    0.447924    0.546715     -1.1567  0.000277154
560    0.446733    0.545738      -1.405  0.000296895
570    0.441986     0.54184    0.401183  0.000394054
580    0.438852    0.539267   -0.857607  0.000280882
590    0.436368    0.537227    0.127111  0.000300537
600    0.432842    0.534332     -0.8853  0.000344457
610    0.429479    0.531571   0.0446455  0.000374688
620    0.425348    0.528179   -0.912966  0.000326797
630    0.422943    0.526205   -0.666774  0.000341524
640    0.418517    0.522571  -0.0103931  0.000291684
650     0.41711    0.521415    0.974057  0.000201869
660     0.41448    0.519256    0.481591  0.000343463
670     0.41024    0.515775    0.974217  0.000302233
680    0.408435    0.514293   0.0709493  0.000233139
690    0.405578    0.511946    0.973549  0.000312275
700     0.40219    0.509165   -0.476261  0.000270903
710     0.40016    0.507498    0.235024   0.0002067
720    0.398056    0.505771   -0.395052  0.000294892
730    0.394262    0.502656    -1.13387  0.000265579
740    0.392744     0.50141    0.124546  0.000222281
750    0.389816    0.499005   -0.285882  0.000245588
760    0.387832    0.497377   -0.395907  0.000270855
770    0.384399    0.494558   -0.341268  0.000356054
780    0.380711     0.49153   0.0148417  0.000261405
790    0.379171    0.490265    0.124012  0.000164844
800    0.377414    0.488823   -0.834001  0.00025904
810     0.37399    0.486011   -0.670033  0.000229366
820    0.372827    0.485057    -1.65518  0.00018207
830    0.370349    0.483022   -0.670033  0.00025346
840    0.367758    0.480894    -1.46397  0.000262882
850    0.365091    0.478705   -0.260567  0.000331098
860    0.361136    0.475457    -1.27258  0.000256932
870    0.359952    0.474486   -0.370271  0.000207686
880    0.356982    0.472047   -0.534667  0.000193758
890    0.356077    0.471304    -1.38265  0.000162102
900     0.35374    0.469385    -1.49257  0.000312726
910    0.349823    0.466169    -1.57472  0.000327675
920    0.347187    0.464004    -1.10933  0.000245957
930    0.344904     0.46213   -0.945576  0.000205207
940    0.343083    0.460635   -0.672304  0.000220056
950    0.340503    0.458516    -1.02775  0.000292501
960    0.337233    0.455831   -0.534907   0.0002625
970    0.335252    0.454206    -1.35603  0.000230649
980     0.33262    0.452044    -1.32909  0.000319631
990     0.32886    0.448957   -0.562386  0.000228116
1000    0.328057    0.448298   -0.508576  9.11936e-05
1010    0.327036    0.447459    -0.97407  0.000201902
1020    0.324019    0.444983    -1.32927  0.000247616
1030    0.322084    0.443393    -1.30257  0.000184675
1040    0.320326     0.44195    -1.54932  0.000223245
1050    0.317619    0.439727    -1.63101  0.000203675
1060    0.316252    0.438605    -2.17836  0.000180544
1070    0.314008    0.436763    -1.38493  0.000191826
1080    0.312416    0.435455    -1.76838  0.000126559
1090    0.311477    0.434684    -2.01468  0.000126898
1100    0.309878    0.433372   -0.975566  0.00026985
1110     0.30608    0.430253     -1.7413  0.000162262
1120    0.306633    0.430707    -1.85143  9.50351e-05
1130    0.304179    0.428693   -0.674816  0.000234626
1140     0.30194    0.426854   -0.647577  0.000174485
1150    0.300689    0.425827     -1.1953  0.000202543
1160    0.297889    0.423528    -1.27685  0.000197388
1170    0.296742    0.422586    -1.19562  0.000181314
1180    0.294263    0.420551    -1.19567  0.000227842
1190    0.292185    0.418845    -1.25015  0.000202489
1200    0.290213    0.417226   -0.976902  0.000201103
1210    0.288163    0.415542    -1.38765  0.000196011
1220    0.286293    0.414007    -1.85277  0.000203884
1230    0.284085    0.412194    -2.18132  0.000232196
1240    0.281649    0.410194    -2.15398  0.000225285
1250    0.279579    0.408495    -2.89282  0.000190423
1260     0.27784    0.407067    -2.31818  0.00023375
1270    0.274904    0.404656    -1.82561  0.000189459
1280    0.274051    0.403956    -2.15478  0.000111517
1290    0.272674    0.402825    -2.34657  0.000225833
1300    0.269535    0.400248    -2.37386  0.000149508
1310    0.269684     0.40037    -1.85448  0.000110663
1320    0.267321     0.39843    -1.44429  0.00024966
1330    0.264691     0.39627    -1.30703  0.000193849
1340    0.263444    0.395247    -2.01893  0.000105967
1350    0.262571     0.39453    -1.55432  0.000121288
1360    0.261019    0.393256    -2.73168  0.000104569
1370     0.26048    0.392813    -1.80118  0.000127545
1380    0.258468    0.391161    -3.08753  0.000237331
1390    0.255733    0.388916    -2.70463  0.000239736
1400    0.253673    0.387224    -2.97814  0.000192992
1410    0.251873    0.385747     -2.5948  0.000157425
1420    0.250525    0.384639    -2.51265  0.000146426
1430    0.248945    0.383342    -2.95072  0.000207572
1440    0.246373    0.381231    -3.11477  0.000225148
1450    0.244442    0.379645    -3.41619  0.000149491
1460    0.243383    0.378776    -3.14257  0.000151786
1470    0.241406    0.377153    -3.60737  0.000201748
1480    0.239348    0.375463    -3.88136  0.000165895
1490    0.238088    0.374429    -3.85441  0.000137615
1500    0.236596    0.373203    -3.38967  0.000170515
1510    0.234678    0.371628    -3.63562  0.000218854
1520    0.232219    0.369609    -3.27978  0.000140563
1530    0.231867     0.36932    -3.88267  9.29639e-05
1540     0.23036    0.368083    -4.37479  0.000127767
1550    0.229311    0.367222    -4.01977  0.000230262
1560    0.225754    0.364302    -4.43015  0.000278926
1570    0.223733    0.362642    -3.55457  0.000119294
1580    0.223369    0.362343    -3.63682  8.29108e-05
1590    0.222075     0.36128    -4.18433  0.000146965
1600    0.220429    0.359929     -3.2272  0.00017444
1610    0.218586    0.358416    -3.33628  6.8064e-05
1620    0.219068    0.358812    -3.39143  8.97601e-05
1630    0.216791    0.356942    -3.69226  0.000224081
1640    0.214586    0.355132    -3.82899  0.000138888
1650    0.214013    0.354661    -3.06342  0.000180303
1660     0.21098    0.352171    -2.59811  0.000153229
1670    0.210948    0.352145    -2.05111  6.57871e-05
1680    0.209665    0.351091     -3.5836  0.000101114
1690    0.208926    0.350485    -2.70827  0.000140594
1700    0.206853    0.348782    -2.98156  0.000191884
1710    0.205088    0.347334    -2.79022  0.000168777
1720    0.203477    0.346011    -2.35248  5.70506e-05
1730    0.203947    0.346397    -2.13427   6.717e-05
1740    0.202134    0.344908    -1.80588  0.00016384
1750    0.200671    0.343707    -1.88805  0.000110926
1760    0.199915    0.343086    -2.46253  0.00012508
1770    0.198169    0.341653    -2.70883  0.000139189
1780    0.197131    0.340801    -2.16167  0.000137579
1790    0.195417    0.339393    -2.07987  0.000181531
1800    0.193501     0.33782     -2.0799  9.45553e-05
1810    0.193526    0.337841    -1.20513  5.90965e-05
1820    0.192319    0.336849     -1.8344  0.000128876
1830    0.190949    0.335724    -1.06797  0.000187014
1840    0.188579    0.333778    -1.06781  0.000193384
1850    0.187081    0.332549    -1.64242  6.99781e-05
1860    0.187179    0.332629     -1.2325  6.42486e-05
1870    0.185796    0.331494    -1.61582  0.000100405
1880    0.185171     0.33098    -1.31542  0.00017692
1890    0.182258    0.328589    -1.91641  0.000217375
1900    0.180823    0.327411    -1.80746  0.000135575
1910    0.179546    0.326362    -1.12336   0.0001339
1920    0.178145    0.325212     -1.4244  0.000118075
1930    0.177185    0.324423      -1.534  0.000104272
1940     0.17606      0.3235    -1.91711  0.000124747
1950     0.17469    0.322375    -1.64357  0.000173607
1960    0.172588    0.320649    -2.05389  0.000111167
1970    0.172466    0.320549    -2.38217  6.89715e-05
1980    0.171208    0.319516    -2.71067  9.34534e-05
1990    0.170597    0.319015    -2.46453  0.000114058
2000    0.168927    0.317643    -3.42206  9.5956e-05
2010    0.168678    0.317439    -2.30083  9.83283e-05
2020    0.166961    0.316029    -2.27335  0.00014134
2030    0.165851    0.315118    -2.35536  0.000109025
2040     0.16478    0.314238    -1.75386  0.000127734
2050    0.163297    0.313021    -2.05485  0.000148526
2060     0.16181      0.3118    -2.13729  0.000183775
2070    0.159621    0.310003    -2.46512  0.000200624
2080    0.157797    0.308505     -2.3285  0.000116818
2090    0.157285    0.308084    -2.00064  0.000102791
2100    0.155741    0.306817    -1.89134  9.47379e-05
2110     0.15539    0.306529    -1.69989  0.000105376
2120    0.153634    0.305087    -1.12499  0.000132425
2130    0.152742    0.304354    -1.69978  0.000151441
2140    0.150605      0.3026    -1.26193  0.00018699
2150    0.149002    0.301284    -2.19236  0.000127318
2160    0.148059    0.300509    -1.39898  8.19743e-05
2170    0.147362    0.299938     -1.2626  6.34715e-05
2180    0.146789    0.299467    -1.18067  0.000132385
2190    0.144715    0.297764    -1.39949   0.0001681
2200    0.143427    0.296707   -0.879569   9.339e-05
2210    0.142847     0.29623   -0.742786  0.000106207
2220    0.141303    0.294963    -1.04383  9.38602e-05
2230     0.14097    0.294689   -0.989433  0.000121436
2240    0.138874    0.292968    -1.23533  0.000138446
2250    0.138201    0.292415    -1.56386  9.26606e-05
2260    0.137021    0.291447    -1.20817  0.000120198
2270    0.135797    0.290442    -1.50927  0.000122611
2280    0.134569    0.289433    -1.61887  0.000116622
2290    0.133464    0.288526    -1.56436  5.14209e-05
2300    0.133541    0.288589     -1.9475  0.000106639
2310    0.131332    0.286775    -1.18123  0.00013008
2320    0.130939    0.286453    -0.22415  9.65931e-05
2330      0.1294    0.285189    -1.51015  0.000141367
2340    0.128112    0.284132    -1.78388  0.000152401
2350    0.126352    0.282687    -1.61946  0.000120825
2360    0.125695    0.282147    -1.40096  9.56062e-05
2370     0.12444    0.281117    -2.27642  0.000166296
2380    0.122369    0.279417    -2.60431  0.000102532
2390    0.122389    0.279433    -2.74157  0.000120056
2400    0.119968    0.277445    -2.24884  0.000109506
2410    0.120199    0.277635    -2.05806  0.000103537
2420    0.117897    0.275745    -2.05814  0.000215404
2430    0.115891    0.274098    -1.62028  0.00016219
2440    0.114654    0.273082    -1.70229  0.000113099
2450    0.113629     0.27224     -1.8669  5.73069e-05
2460    0.113507    0.272141    -1.75755  0.000118027
2470    0.111268    0.270302    -1.62066  0.000209065
2480    0.109326    0.268708   -0.991277  0.000107818
2490    0.109112    0.268532   -0.964384  6.48402e-05
2500    0.108029    0.267643   -0.472026   0.0001388
2510    0.106336    0.266252   -0.827495  0.000210914
2520    0.103811    0.264179    -0.88216  0.000189646
2530    0.102543    0.263138   -0.964331  5.71962e-05
2540    0.102667     0.26324    -1.04666  7.27348e-05
2550    0.101088    0.261944   -0.472347  9.24896e-05
2560    0.100817    0.261721    -1.48489  5.34102e-05
2570     0.10002    0.261067   -0.855375  7.32705e-05
2580   0.0993519    0.260518   -0.910254  0.000106404
2590   0.0978919     0.25932   -0.992265  9.12286e-05
2600   0.0975273     0.25902    -1.21154  8.27551e-05
2610   0.0962368    0.257961    -1.29368  0.000142451
2620   0.0946783    0.256681   -0.965346  9.86531e-05
2630   0.0942638    0.256341    -1.37572  5.47931e-05
2640   0.0935824    0.255781   -0.691888  6.82212e-05
2650   0.0928993     0.25522   -0.993253  5.51015e-05
2660   0.0924804    0.254876   -0.172237  6.41417e-05
2670   0.0916165    0.254167   -0.828537  9.53976e-05
2680   0.0905724     0.25331   0.0465566  6.67077e-05
2690   0.0902823    0.253072   -0.555827  0.000109294
2700   0.0883866    0.251515    -0.44615  0.000151893
2710   0.0872445    0.250577   -0.528053  0.000100965
2720   0.0863672    0.249857    -0.82958  9.67819e-05
2730   0.0853088    0.248988   -0.200438  0.000117195
2740   0.0840233    0.247933   -0.610572  0.000142202
2750   0.0824648    0.246653   -0.364486  0.000135834
2760   0.0813067    0.245702   -0.309901  9.57195e-05
2770   0.0805504    0.245081   -0.474297  0.00011404
2780   0.0790259    0.243829   -0.391832  0.000114316
2790   0.0782641    0.243204   -0.310035  9.20862e-05
2800   0.0771841    0.242317  -0.00917778  0.00013757
2810   0.0755127    0.240945     0.31924  0.000131121
2820   0.0745617    0.240164    0.401171  0.000111114
2830   0.0732904     0.23912    0.756426  0.000111397
2840   0.0723338    0.238335     1.00294  9.3526e-05
2850   0.0714199    0.237585     0.61975  8.0118e-05
2860   0.0707314    0.237019     1.00302  4.61299e-05
2870   0.0704973    0.236827     0.51018  1.88772e-05
2880   0.0703539    0.236709    0.865595  4.41033e-05
2890   0.0696152    0.236103     1.02951  0.000110636
2900   0.0681412    0.234893     1.05699  0.000126966
2910   0.0670759    0.234018     1.24825  8.82909e-05
2920   0.0663753    0.233443    0.755838  6.78509e-05
2930   0.0657189    0.232904    0.509619  0.00010953
2940   0.0641847    0.231644     1.38538  0.000142089
2950   0.0628771     0.23057    0.892648  0.00011476
2960   0.0618895     0.22976    0.537018  7.34555e-05
2970    0.061408    0.229364    0.837715  5.74926e-05
2980   0.0607397    0.228816    0.645653  0.000120298
2990    0.059002    0.227389    0.865035  0.000148457
3000   0.0577705    0.226378     1.60351  9.3068e-05
3010   0.0571407    0.225861    0.673293  5.3736e-05
3020   0.0566958    0.225495     1.22018  0.00014261
3030   0.0542885    0.223519    0.700291  0.000177951
3040   0.0531368    0.222573     1.16528  7.08612e-05
3050   0.0528713    0.222355     1.00099  0.000103952
3060   0.0510578    0.220866    0.946217  0.00013701
3070   0.0501311    0.220105     0.64544  9.98475e-05
3080   0.0490608    0.219227    0.234905  8.83529e-05
3090    0.048364    0.218654    0.645065  0.000112219
3100   0.0468164    0.217384    0.727691  0.000107756
3110   0.0462089    0.216885    0.344502  9.63192e-05
3120   0.0448901    0.215802    0.754556  7.99609e-05
3130   0.0446097    0.215572    0.234717  2.80989e-05
3140   0.0443281    0.215341     0.50839  9.94382e-05
3150   0.0426209    0.213939    0.590507  9.7242e-05
3160   0.0423832    0.213744    0.699677  9.52601e-05
3170   0.0407157    0.212375    0.672331  0.000143144
3180   0.0395204    0.211393    0.645146  9.81968e-05
3190   0.0387518    0.210762    0.535388  3.39184e-05
3200    0.038842    0.210836    0.808499  9.63874e-05
3210    0.036824    0.209179    0.179492  0.000108512
3220   0.0366717    0.209054    0.507668  6.57132e-05
3230   0.0355098      0.2081    0.562494  0.000128407
3240   0.0341036    0.206946    0.425658  0.000131181
3250   0.0328861    0.205946    0.589893  0.000105032
3260    0.032003    0.205221     1.13708  0.000134384
3270   0.0301985    0.203739     0.56252  0.000125022
3280   0.0295025    0.203168     1.13721  8.66823e-05
3290   0.0284648    0.202316     1.00035  9.90652e-05
3300   0.0275212    0.201541     1.08238  3.85589e-05
3310   0.0276936    0.201683     1.02703  2.65752e-05
3320   0.0269897    0.201105      1.0544  9.24582e-05
3330   0.0258445    0.200165     1.21842  0.000146449
3340   0.0240607      0.1987     1.41021  0.000105249
3350   0.0237395    0.198436     1.46501  3.9519e-05
3360   0.0232703    0.198051     2.17622  0.000127973
3370     0.02118    0.196335     1.68397  0.000147892
3380   0.0203125    0.195623     2.14917  6.22785e-05
3390   0.0199345    0.195312     2.06643  -1.63784e-05
3400   0.0206401    0.195892     2.14839  5.52595e-05
3410   0.0188293    0.194405     2.17608  0.000109637
3420   0.0184473    0.194091     2.23054  1.10163e-05
3430    0.018609    0.194224     2.91442  7.55734e-05
3440   0.0169359     0.19285     3.05158  8.31142e-05
3450   0.0169467    0.192859     3.02365  7.60435e-05
3460    0.015415    0.191601     2.83249  0.000130968
3470   0.0143273    0.190708     3.43461  5.65398e-05
3480   0.0142842    0.190673     2.91426  7.67939e-05
3490   0.0127914    0.189447     3.27021  0.000109456
3500   0.0120951    0.188876     3.65316  6.97413e-05
3510   0.0113966    0.188302     3.40665  0.000105109
3520  0.00999291     0.18715      3.3248  4.75389e-05
3530   0.0104458    0.187521     3.43397  -2.17929e-08
3540  0.00999334     0.18715     2.88684  0.000126032
3550  0.00792518    0.185452     2.80493  0.000116194
3560  0.00766946    0.185242     3.24217  9.89808e-05
3570  0.00594556    0.183827     2.74992  0.000147328
3580   0.0047229    0.182823     2.72244  0.000122453
3590  0.00349651    0.181816     2.80456  0.000117744
3600  0.00236802    0.180889     2.66772  0.000100293
3610  0.00149065    0.180169     2.74957  7.25788e-05
3620  0.000916442    0.179697     2.36628  9.83783e-05
3630  -0.000476914    0.178553     2.66743  0.000113971
3640  -0.00136297    0.177826     2.91333  8.10534e-05
3650  -0.00209798    0.177222     3.29644  9.15879e-05
3660  -0.00319473    0.176322     2.88641  6.61469e-05
3670  -0.00342092    0.176136     3.21469  -1.59582e-05
3680  -0.00287557    0.176584     2.74915  7.68765e-05
3690  -0.00495845    0.174874     3.10499  9.49908e-05
3700  -0.00477538    0.175024     2.88574  5.15054e-05
3710  -0.00598856    0.174028     2.42062  0.000137052
