Time   C(t)   
ps   
0           1           1  1.69316e-09   0.0593545
10    0.410498    0.752454      4.4863   0.0305833
20    0.388334    0.743147       1.351  0.00181208
30    0.374256    0.737236    -4.05208  0.00112439
40    0.365846    0.733704     2.57012  0.000801127
50    0.358234    0.730507    -4.22949  0.000537732
60    0.355091    0.729188    0.647296   0.0014165
70    0.329904    0.718611     3.43899  0.000621614
80    0.342659    0.723967      3.6079  0.000318062
90    0.323542     0.71594     1.17376  0.00119724
100    0.318714    0.713912  -0.0489272  -6.9949e-05
110    0.324941    0.716527     3.08194  0.000340667
120    0.311901    0.711051     2.04127  0.00138745
130    0.297192    0.704875     1.34488  0.00116409
140    0.288619    0.701275    0.295013  0.00073479
150    0.282497    0.698704     4.13538  0.000324515
160    0.282129    0.698549     4.30633  0.000119309
170     0.28011    0.697702     1.51412  0.00131633
180    0.255802    0.687494  -0.0456933  0.000347033
190     0.27317    0.694787     1.16508  -0.000394513
200    0.263693    0.690807     5.52357  0.000617532
210    0.260819    0.689601     4.30395  3.90053e-05
220    0.262913     0.69048     2.38453  0.000744499
230    0.245929    0.683348     2.21511  0.000911152
240    0.244689    0.682828    0.644061  -0.000146101
250    0.248851    0.684575    -3.01753  0.000311555
260    0.238458    0.680211     3.95575  0.000123993
270    0.246371    0.683534     6.56918  2.09719e-05
280    0.238039    0.680035     5.00136  0.000145406
290    0.243463    0.682313     3.43048  -4.16026e-05
300    0.238871    0.680384    -1.79808  0.000229648
310     0.23887    0.680384     3.60381  2.10069e-05
320    0.238451    0.680208      1.3379  0.000503013
330     0.22881    0.676159    -1.44716  0.000482602
340    0.228799    0.676155     0.64287  -0.000460856
350    0.238027     0.68003    -4.24021  -0.00012498
360    0.231298    0.677204     2.90453  0.000252684
370    0.232973    0.677908     2.73187  0.000169372
380    0.227911    0.675782    0.116236  0.000443497
390    0.224103    0.674183     6.56424  0.000191203
400    0.224087    0.674176     1.33603  4.38884e-05
410    0.223226    0.673814   -0.234003  8.62367e-05
420    0.222362    0.673452     5.86649  0.000149947
430    0.220227    0.672555     -1.8008  -0.000210131
440    0.226565    0.675217     1.85671  6.56977e-05
450    0.218913    0.672003     1.33535  6.50875e-05
460    0.225263     0.67467    -2.14985  -0.000146654
470    0.221846    0.673235     1.85807  -0.000317765
480    0.231618    0.677339     1.85773  0.000577192
490    0.210302    0.668387    -0.23145  0.000662094
500    0.218376    0.671778     5.68839  -0.000317205
510    0.216646    0.671052    0.286845  -0.000382505
520    0.226027    0.674991     7.08288  0.000387608
530    0.208894    0.667796    0.638785  0.000558371
540    0.214859    0.670301     1.85568  0.000410688
550     0.20068    0.664347     4.99762  -0.00014762
560    0.217812    0.671541     0.11147  -0.000640527
570    0.213491    0.669726   -0.061181  0.000647652
580    0.204858    0.666102    -1.27842  0.000368836
590    0.206114    0.666629    -4.76651  0.000413299
600    0.196592    0.662631    -2.50076  4.6777e-05
610    0.205178    0.666236    0.983406  -0.00025465
620    0.201686    0.664769     -3.0228  2.53081e-05
630    0.204672    0.666023     -8.2534  2.57202e-05
640    0.201171    0.664553     2.55191  0.000263806
650    0.199396    0.663808   -0.758935  0.000416344
660    0.192844    0.661057   -0.756893  0.000156356
670    0.196269    0.662495    -1.45533  0.000526845
680    0.182307    0.656632     3.60143  0.000244097
690    0.191387    0.660445    -0.93431  -0.000473184
700    0.191771    0.660606    -3.19886  0.000310554
710    0.185176    0.657836    0.984599  0.000354543
720     0.18468    0.657628     1.15895  -0.000628029
730    0.197737    0.663111    -2.85373  0.000487371
740    0.174933    0.653535     -3.0211  0.000596014
750    0.185816    0.658105    -3.89508  -0.000387757
760    0.182688    0.656792    -7.20575  -1.61029e-05
770    0.186138    0.658241    -3.54842  0.000204013
780    0.178608    0.655078   -0.585774  0.000709865
790    0.171941    0.652279      -1.629  0.000667403
800     0.16526    0.649473     1.15912  -0.000345409
810    0.178849     0.65518    -4.59556  -0.000256787
820    0.170395     0.65163    0.461368  0.000780048
830    0.163248    0.648629   -0.759105  -0.000302123
840    0.176438    0.654167    -4.07165  -0.000523162
850    0.173711    0.653022     -2.6792  0.000472475
860    0.166988    0.650199    -2.15682    0.001006
870    0.153592    0.644573    -2.15087  0.000674557
880    0.153497    0.644534     -5.4646  -0.000479891
890    0.163189    0.648604     -6.3379  -0.000502694
900    0.163551    0.648756    -8.25494  0.000209031
910    0.159009    0.646848   -0.761319  9.7663e-05
920    0.161598    0.647935    -2.85322  3.1241e-05
930    0.158384    0.646586    -3.72345  8.63746e-06
940    0.161425    0.647863   -0.587134  -0.000550798
950      0.1694    0.651212    -2.85577  0.000344876
960    0.154527    0.644966     4.63955  0.000950293
970    0.150394    0.643231     -2.8539  0.000301506
980    0.148497    0.642434  -0.0637343  0.000234807
990    0.145698    0.641259    -1.28404  -0.000395138
1000      0.1564    0.645753    0.977791  0.00032604
1010    0.139177     0.63852    -1.45856  0.00043799
1020     0.14764    0.642074   -0.766594  0.00025969
1030    0.133983    0.636339    0.980173  0.000937547
1040    0.128889      0.6342    0.980854  -0.000191949
1050    0.137822    0.637952    -3.72685  -0.00021429
1060    0.133175       0.636    -2.33152  0.000397175
1070    0.129879    0.634616     1.85381  -0.000124355
1080    0.135662    0.637045    -1.80846  -0.000124136
1090    0.132361    0.635658    -4.77144  0.00030768
1100    0.129509    0.634461    -2.50757  -1.07162e-05
1110    0.132576    0.635748     -7.5616  -0.000238604
1120    0.134281    0.636464    -2.68278  3.49179e-05
1130    0.131877    0.635455     1.67333  0.000537924
1140    0.123522    0.631947   -0.762849  -0.000102298
1150    0.133923    0.636314    -2.50979  -5.56197e-05
1160    0.124635    0.632414    -3.72924  0.000333259
1170    0.127258    0.633515   -0.244044  0.000771205
1180    0.109211    0.625937    -1.98638  0.000679773
1190    0.113663    0.627806     -1.6353  -0.000100303
1200    0.111217    0.626779    0.279357  0.000337097
1210    0.106921    0.624975   -0.417546  0.000753186
1220   0.0961529    0.620454   -0.241321  0.00052346
1230   0.0964516    0.620579  -0.0662873  -0.00053879
1240    0.106929    0.624979    -3.90189  -0.000354159
1250    0.103535    0.623553    -3.37764  -0.000680362
1260    0.120536    0.630693    -4.77825  0.000154866
1270    0.100437    0.622253      -2.859  0.000548144
1280    0.109573    0.626089   -0.768465  -0.000193382
1290    0.104305    0.623877    -2.16142  0.000900046
1300   0.0915722     0.61853    -2.50792  0.000202118
1310    0.100263    0.622179    -2.51047  -0.000426478
1320    0.100102    0.622112    -4.60169  0.000413413
1330   0.0919945    0.618707     -4.5993  -0.000311484
1340    0.106331    0.624728    -7.56858  -0.000638866
1350    0.104772    0.624073    -5.82386  6.2348e-05
1360    0.105084    0.624204    -5.82335  3.91193e-05
1370    0.103989    0.623744    -1.81425  -0.000595616
1380    0.116997    0.629206     -6.8727  -0.000549074
1390    0.114971    0.628356    -2.51472  0.000226376
1400    0.112469    0.627305    -2.51387  0.00034477
1410    0.108075     0.62546    0.450136  0.000180138
1420    0.108867    0.625792      3.0622  0.000275466
1430    0.102566    0.623147   -0.593771  0.000180983
1440    0.105247    0.624272    0.275273  -0.000126165
1450    0.105089    0.624206   -0.595471  0.000371667
1460   0.0978135    0.621151    0.103303  -7.97026e-06
1470    0.105249    0.624273    -3.55948  -0.000601712
1480    0.109848    0.626204   -0.945541  -0.000174695
1490    0.108743     0.62574    0.621935  0.000492055
1500    0.100007    0.622072    -3.21043  0.000922395
1510   0.0902948    0.617994     -2.5103  -0.000437529
1520    0.108757    0.625746   -0.598365  -0.000269448
1530   0.0956838    0.620257   -0.247449  0.000207086
1540    0.104615    0.624007    -1.81782  -0.000318702
1550    0.102058    0.622933     -5.1307  0.000496193
1560   0.0946916     0.61984    -3.03812  0.000160586
1570   0.0988461    0.621585    -3.90904  0.000209755
1580   0.0904965    0.618078    -2.86462  0.000378161
1590   0.0912829    0.618409    -3.55931  0.000162502
1600   0.0872465    0.616714     1.84275  0.000259193
1610    0.086099    0.616232    -3.38513  -0.000126889
1620   0.0897843    0.617779      -1.992  -0.000756344
1630    0.101226    0.622584    -1.47388  0.000284551
1640   0.0840933     0.61539   -0.947924  0.000550464
1650   0.0902166    0.617961    -4.25911  -0.000199996
1660   0.0880932    0.617069    -3.21469  1.79488e-05
1670   0.0898577     0.61781    -2.16635  1.82182e-05
1680   0.0877288    0.616916    -4.78114  0.000359411
1690   0.0826694    0.614792    -3.03948  0.000311264
1700   0.0815035    0.614302    -2.51319  -0.000127712
1710   0.0852237    0.615864   -0.250511  -0.000176668
1720   0.0850369    0.615786  -0.0756455  0.000435243
1730   0.0765188    0.612209   -0.771018  1.87151e-05
1740   0.0846626    0.615629   -0.599219  -0.00071709
1750   0.0908606    0.618231   -0.951327  0.000535248
1760   0.0739576    0.611133    -1.81697  0.00127379
1770   0.0653848    0.607533    -1.64245  0.000340618
1780   0.0671453    0.608273    -1.12041  -0.000571138
1790   0.0768075     0.61233   -0.425377  -2.83603e-05
1800   0.0677125    0.608511    0.795779  0.00063844
1810   0.0640387    0.606968  -0.0749655  -0.00027624
1820   0.0732373    0.610831     1.14295  -0.00030091
1830   0.0700569    0.609495     2.36411  0.000765386
1840   0.0579296    0.604403     -3.2106  0.000493205
1850   0.0601928    0.605353    0.970473  -0.000425761
1860   0.0664448    0.607979    -3.38887  0.000570414
1870   0.0487845    0.600563     2.71332  9.62082e-05
1880   0.0645206    0.607171     1.14057  -0.000476186
1890   0.0583083    0.604562     3.75383  0.000922224
1900   0.0460761    0.599425      3.5839  0.000473291
1910   0.0488424    0.600587     2.01353  -0.000552842
1920    0.057133    0.604068    0.791014  0.000726735
1930   0.0343078    0.594483     3.93193  0.000550628
1940   0.0461204    0.599444     2.88393  -0.000251379
1950   0.0393353    0.596595     4.80199  0.000301307
1960   0.0400943    0.596913     2.88479  -0.000959221
1970   0.0585198    0.604651     1.65955  -0.000404648
1980   0.0481872    0.600312     1.31356  0.000427387
1990    0.049972    0.601061       7.238  0.000125257
2000   0.0456821     0.59926     3.40597  0.000683152
2010    0.036309    0.595324     3.23247  0.000582976
2020   0.0340226    0.594364     3.58135  0.000203495
2030   0.0322391    0.593615     2.88428  -2.50813e-05
2040   0.0345242    0.594574     3.23196  -0.000713101
2050   0.0465011    0.599604     4.27416  -0.000663216
2060   0.0477885    0.600144     7.23885  0.000407685
2070   0.0383474     0.59618     3.57931  0.000459189
2080   0.0386048    0.596288   -0.254426  0.000179152
2090   0.0347644    0.594675     2.70839  0.000538456
2100   0.0278356    0.591766     8.46137  -0.000333577
2110   0.0414359    0.597477     2.00757  -0.00074457
2120    0.042727    0.598019      4.4475  0.00051439
2130   0.0311481    0.593157     7.06263  0.000463319
2140   0.0334606    0.594128     9.85143  -2.50385e-05
2150   0.0316489    0.593367     6.36759  -0.000258015
2160   0.0386209    0.596295     4.79706  -0.0005428
2170   0.0425049    0.597926     7.23477  -0.000388878
2180   0.0463985    0.599561     7.23647  -5.25611e-05
2190   0.0435561    0.598367     4.62406  0.000258597
2200   0.0412266    0.597389     11.2466  0.000259285
2210   0.0383704    0.596189      9.5034  -0.000156817
2220   0.0443629    0.598706     3.40393  -0.000182729
2230    0.042025    0.597724     4.97345  -0.000340405
2240    0.051171    0.601565     7.05991  0.000260825
2250   0.0368085    0.595534     8.45881  0.000495618
2260   0.0412586    0.597402     6.01719  0.000288404
2270   0.0310404    0.593111     8.11045  -0.000630505
2280   0.0538688    0.602698     7.58177  -0.000866555
2290   0.0483715    0.600389      4.4475  0.00089258
2300   0.0360172    0.595201     4.97056  2.48965e-05
2310   0.0478736     0.60018     6.01447  -0.000527555
2320   0.0465683    0.599632     11.5902  0.000764747
2330   0.0325786    0.593757     6.88946  0.000580726
2340   0.0349537    0.594755     11.0692  -0.000370234
2350   0.0399833    0.596867     8.27919  -0.000264941
2360   0.0402526     0.59698     8.97575  0.000610442
2370   0.0277745     0.59174     6.88606  0.000105945
2380   0.0381337     0.59609     8.10449  -0.000504702
2390   0.0378685    0.595979     12.4599  0.000293145
2400   0.0322707    0.593628     13.5069  0.000667339
2410   0.0245217    0.590374     12.9859  6.60121e-07
2420   0.0322575    0.593623     10.5434  1.63941e-06
2430   0.0244889     0.59036     11.7659  0.000885149
2440   0.0145546    0.586189      8.4549  -5.19861e-05
2450   0.0255287    0.590797      8.9766  -0.000131403
2460   0.0171826    0.587292     8.80072  0.000189904
2470   0.0217306    0.589202     8.97388  -0.00032071
2480   0.0235968    0.589986     8.45235  -0.000213835
2490   0.0260073    0.590998      9.1484  2.88213e-05
2500   0.0230204    0.589744     7.23273  5.55916e-05
2510   0.0248955    0.590531      7.4081  -0.000133567
2520   0.0256917    0.590865       10.54  0.00076117
2530  0.00967206    0.584138     7.58228  0.00135967
2540  -0.0015016    0.579446     10.0219  -0.000377104
2550   0.0172141    0.587305     5.66184  -0.00138384
2560   0.0261752    0.591068     9.49404  -2.46199e-05
2570   0.0177065    0.587512     10.7132  0.000165312
2580   0.0228689     0.58968     11.2349  0.000713648
2590  0.00343357    0.581519     16.1188  0.000768643
2600  0.00749609    0.583225     7.05429  -0.000297084
2610  0.00937525    0.584014     8.62109  0.000388438
2620  -0.00027267    0.579962     14.0271  0.00113103
2630  -0.0132454    0.574515     7.40708  0.000197775
2640  -0.00422816    0.578301     11.2388  -0.00101322
2650  0.00701888    0.583024     7.92486  -0.000325643
2660  0.00228469    0.581036     11.5848  -0.000217057
2670     0.01136    0.584847     8.79221  -0.000105981
2680  0.00440431    0.581926     11.9331  0.000585631
2690  -0.000352583    0.579929     10.8878  0.000337573
2700  -0.00234715    0.579091     11.2364  -0.000106052
2710  0.00176845    0.580819     8.79561  -0.000412114
2720  0.00589513    0.582552       12.28  3.27389e-05
2730  0.00111368    0.580544     8.79646  0.000115945
2740  0.00357622    0.581579      8.7951  0.00025651
2750  -0.00401653     0.57839     7.22694  0.000564396
2760  -0.0077117    0.576838     10.8875  8.97711e-05
2770  -0.00581195    0.577636     11.5849  -0.000611251
2780  0.00451332    0.581972     13.8473  -0.000415634
2790  0.00250073    0.581127     12.2801  -0.000276914
2800   0.0100516    0.584298     10.5378  4.80473e-06
2810  0.00240464    0.581087     8.79544  0.000398871
2820   0.0020742    0.580948     11.0596  -5.1681e-05
2830  0.00343826    0.581521     10.5368  -0.000419637
2840   0.0104669    0.584472     11.4058  0.000826577
2850  -0.0130933    0.574579     7.92656  0.000117258
2860  0.00812177    0.583487     13.4974  -0.000532942
2870  -0.00243444    0.579055     11.7559  3.25189e-05
2880  0.00747139    0.583214     9.14057  -0.000564446
2890  0.00885447    0.583795     12.6273  -0.00019561
2900   0.0113836    0.584857     15.0662  0.000661342
2910  -0.00437237    0.578241     13.1521  0.000203977
2920  0.00730404    0.583144      14.544  -0.000710695
2930  0.00984153     0.58421     12.8013  -0.000225396
2940    0.011812    0.585037     16.2855  0.000348779
2950  0.00286595     0.58128     13.1527  0.000233842
2960  0.00713513    0.583073     13.5006  -0.000254558
2970  0.00795711    0.583418     12.4521  -0.000168911
2980   0.0105133    0.584492      11.233  -0.000458365
2990   0.0171244    0.587268     15.2397  0.000235382
3000   0.0058057    0.582515     11.9278  0.000437713
3010  0.00837016    0.583592      10.186  -0.000372931
3020   0.0132643    0.585647     12.9738  3.31718e-05
3030  0.00770673    0.583313     10.0123  0.000469245
3040  0.00387941    0.581706     11.2337  4.24404e-06
3050  0.00762185    0.583277     14.8925  -5.36043e-05
3060   0.0049515    0.582156     13.6712  0.000530578
3070  -0.00298972    0.578821     16.6359  -0.000288213
3080   0.0107158    0.584577     15.2394  -0.000580712
3090  0.00862452    0.583698     14.8915  0.000297517
3100  0.00476541    0.582078     14.0186  -0.000113504
3110   0.0108946    0.584652     15.5869  0.000151963
3120  0.00172615    0.580802     13.3247  -0.000232167
3130   0.0155379    0.586602     13.1476  -0.000821914
3140   0.0181644    0.587704     13.3216  0.000298972
3150   0.0095585    0.584091     14.3684  -0.000115768
3160   0.0204798    0.588677     11.2316  0.000389722
3170  0.00176405    0.580818     9.66466  0.000834383
3180  0.00379212    0.581669     12.1051  -0.000500671
3190   0.0117775    0.585022       10.36  6.44842e-05
3200  0.00250243    0.581128     11.2332  -0.000205163
3210   0.0158807    0.586746     12.9723  -0.000562764
3220   0.0137577    0.585854     11.4031  0.000332357
3230   0.0092336    0.583954     14.1939  9.33835e-05
3240     0.01189     0.58507     11.7528  -0.000175994
3250   0.0127535    0.585432     12.4519  -0.000537427
3260   0.0226386    0.589583     14.3654  -2.65006e-05
3270   0.0132835    0.585655     11.2301  0.000243359
3280   0.0177714    0.587539     11.5776  -0.00102322
3290   0.0337479    0.594248     15.2356  6.33628e-05
3300   0.0165041    0.587007     10.1824  0.000939484
3310   0.0149583    0.586358     10.7079  0.000245765
3320   0.0115888    0.584943     12.7984  -0.000300498
3330   0.0209682    0.588882     9.83356  -0.000209144
3340   0.0157717      0.5867     17.3291  -0.000332768
3350   0.0276236    0.591677     14.5397  -0.00060717
3360   0.0279151    0.591799     14.5385  -2.91407e-05
3370   0.0282064    0.591921     14.8861  0.000185064
3380   0.0242138    0.590245     14.0155  0.00079838
3390   0.0122388    0.585216     18.2003  6.33628e-05
3400   0.0229466    0.589713      14.364  -0.000980179
3410   0.0318424    0.593448     14.3637  -0.000121048
3420   0.0253676    0.590729     14.3632  0.000617631
3430   0.0194897    0.588261     14.0153  0.000310682
3440   0.0191539     0.58812     15.4108  -0.000121062
3450    0.021911    0.589278     11.9263  -0.00012119
3460   0.0215777    0.589138     14.7129  -2.87077e-05
3470   0.0224851    0.589519     19.0687  -0.000650292
3480   0.0345835    0.594599     14.5353  0.00022013
3490   0.0180825     0.58767     15.4093  0.000873268
3500   0.0171182    0.587265     18.5473  -0.000184404
3510   0.0217706    0.589219     16.9773  -0.000372164
3520   0.0245615    0.590391     13.8388  2.34907e-06
3530   0.0217236    0.589199     18.0219  9.60449e-05
3540   0.0226406    0.589584     15.0599  6.52152e-05
3550   0.0204193    0.588651     15.9318  -0.000375358
3560   0.0301477    0.592737     14.7105  -0.000375585
3570    0.027931    0.591806     15.4084  0.00037985
3580   0.0225507    0.589546       14.71  0.000665309
3590   0.0146248    0.586218      16.633  0.000445541
3600   0.0136399    0.585805     14.8881  -0.000852722
3610   0.0316793     0.59338     17.3236  -0.000599803
3620    0.025636    0.590842     14.5374  0.000223537
3630   0.0272085    0.591502     16.6267  0.000639029
3640   0.0128554    0.585475     15.4117  0.000416408
3650   0.0188804    0.588005     13.3196  -0.000699347
3660   0.0268423    0.591349     12.6208  -0.000381277
3670   0.0265059    0.591207     12.4465  -0.000254885
3680     0.03194    0.593489     12.9668  0.000322818
3690   0.0200496    0.588496     16.4537  -0.000224325
3700   0.0364265    0.595373     16.8026  -6.17305e-05
3710   0.0212842    0.589015     12.0974  6.4626e-05
3720    0.035134     0.59483     18.8919  -0.00103168
3730   0.0419177    0.597679     17.3216  0.000647716
3740   0.0221797    0.589391     15.0601  0.00110155
3750   0.0198866    0.588428     16.2805  0.000879166
3760  0.00459636    0.582007     11.7511  -0.000842886
3770   0.0367443    0.595507     17.6703  -0.00110243
3780   0.0266449    0.591266     15.7551  0.00127264
3790   0.0112916    0.584818     13.3184   0.0001651
3800   0.0233429    0.589879      16.627  -2.85728e-05
3810   0.0118631    0.585058     14.8864  -9.61513e-05
3820   0.0252659    0.590687      16.974  -0.00127677
3830   0.0373984    0.595781     16.1011   0.0009559
3840  0.00614792    0.582658     13.4921  0.000922536
3850   0.0189477    0.588033     13.8393  -0.00098504
3860   0.0258487    0.590931     14.8842  -0.000426798
3870   0.0274836    0.591618     14.3591   0.0011938
3880  0.00197271    0.580905     16.4547   0.0008307
3890   0.0108696    0.584641     12.7935  7.21987e-05
3900  0.000528733    0.580299     13.6658  0.000503396
3910  0.000801687    0.580413      14.188  -0.000127315
3920  0.00307503    0.581368     16.2783  7.27594e-05
3930  -0.0006535    0.579802      17.326  -0.000395641
3940   0.0109879    0.584691      15.057  -0.000429189
3950  0.00793029    0.583407      10.353  0.000373364
3960  0.00352058    0.581555     11.7489  -0.000667261
3970   0.0212755    0.589011      14.883  -0.000465697
3980   0.0128345    0.585466      13.663  0.000440942
3990   0.0124567    0.585308     13.8376  0.000375564
4000  0.00532324    0.582312     9.48162  0.000816002
4010  -0.00386337    0.578454     14.5377  3.9183e-05
4020  0.00453958    0.581983     13.6642  -0.00077381
4030   0.0116128    0.584953     14.5355  -0.000606531
4040   0.0166702    0.587077     17.4957  4.28664e-06
4050   0.0115271    0.584917     14.5348  7.16593e-05
4060    0.015237    0.586475     11.0499  -0.000337424
4070   0.0182756    0.587751     15.2317  -6.47752e-05
4080   0.0165325    0.587019     12.9663  0.000346047
4090   0.0113546    0.584845     14.3611  0.000243913
4100   0.0116543    0.584971     17.1498  0.000795633
4110  -0.00455803    0.578163     13.3196  0.000107698
4120  0.00950031    0.584066     12.2694  -0.000752341
4130   0.0104888    0.584481     15.0568  0.000177612
4140  0.00594807    0.582575     10.6997  3.91546e-05
4150   0.0097057    0.584152     14.7073  4.00205e-05
4160  0.00514766    0.582238     13.8382  -0.000586156
4170   0.0214288    0.589075     14.3586  -0.000516782
4180   0.0154833    0.586579      10.699  0.00108387
4190  -0.00024854    0.579972     14.3606  -0.000240818
4200   0.0202997    0.588601     14.8799  -0.00037853
4210  0.00732207    0.583152     14.7076  0.000633926
4220  0.00762114    0.583277     13.4877  -0.000100182
4230  0.00932572    0.583993     17.8431  5.11699e-06
4240   0.0075188    0.583234     13.4849  7.53143e-05
4250  0.00781943     0.58336      17.146  0.000499387
4260  -0.00246894     0.57904     14.0097  0.000429452
4270  -0.000769608    0.579754     8.95618  -0.000453603
4280  0.00660313     0.58285      13.659  -9.98348e-05
4290  0.00122709    0.580592     14.0082  0.000574133
4300  -0.00487953    0.578028     13.1379  0.000113142
4310  -0.00103575    0.579642     14.3565  0.000292776
4320  -0.0107351    0.575569     13.4878  0.000721497
4330  -0.0154657    0.573582     16.2744  -0.000385372
4340  -0.00302762    0.578805     15.7505  4.51517e-05
4350  -0.0163687    0.573203     14.3576  0.000581968
4360   -0.014667    0.573918      19.061  -0.000926305
4370  0.00215737    0.580983     18.0139  -0.000207114
4380  -0.0105247    0.575657     18.5386  0.000259072
4390  -0.00302407    0.578807     19.0585  -0.000244821
4400  -0.00562828    0.577713     15.2271  0.000550919
4410  -0.0140424     0.57418     14.8794  0.00047977
4420  -0.0152237    0.573684      14.355  0.000518499
4430  -0.0244124    0.569825     17.6669  0.000300959
4440  -0.0212429    0.571156     13.6576  -0.000134965
4450  -0.0217131    0.570959     15.2268  0.000668901
4460  -0.0346209    0.565539     14.0078  1.06315e-05
4470  -0.0219257     0.57087     14.8782  -0.000868031
4480  -0.0172603    0.572829      15.224  0.000194588
4490  -0.0258175    0.569235     16.2731  -0.000469075
4500  -0.00787876    0.576768     15.2239  0.000122169
4510  -0.0282609    0.568209     16.7946  0.00148729
4520  -0.0376246    0.564277     14.1815  -0.000136236
4530  -0.0255362    0.569354     14.1791  -0.000914162
4540  -0.0193414    0.571955     16.2695  0.000346118
4550  -0.0324585    0.566447     16.4469  0.000420148
4560  -0.0277444    0.568426     16.0955  0.000236723
4570   -0.037193    0.564459     17.4927  0.000311023
4580  -0.0339648    0.565814     16.7932  -9.86567e-05
4590  -0.0352199    0.565287     16.9679  0.000313372
4600  -0.0402323    0.563182     14.7001  0.000953295
4610  -0.0542858    0.557281     18.1923  -0.000437607
4620  -0.0314801    0.566858     17.4915  -0.00153011
4630  -0.0236836    0.570132     13.3056  -0.000100616
4640  -0.0294678    0.567703     14.3523  0.000920386
4650  -0.0420913    0.562402     14.8774  0.000240102
4660  -0.0342699    0.565686     12.7851  -0.000479394
4670  -0.0325034    0.566428     12.0881  -0.000291272
4680  -0.0284444    0.568132      14.354  0.000509202
4690  -0.0426874    0.562151     11.2177  0.000356458
4700  -0.0355736    0.565139     11.9142  -0.000597838
4710  -0.0307307    0.567172     13.8282  -0.000907299
4720  -0.0174276    0.572759     11.5625  0.00032049
4730  -0.0371405    0.564481     11.9129  0.000395577
4740  -0.0253392    0.569436     10.5179  0.000322925
4750   -0.043599    0.561769     11.7395    0.000824
4760  -0.0418192    0.562516     13.4815  9.29009e-05
4770   -0.045457    0.560988     13.6566  -0.000256616
4780  -0.0366868    0.564671     12.6098  0.000638163
4790  -0.0582203    0.555629     11.9134  0.000832524
4800  -0.0533373    0.557679     12.2617  -0.00068445
4810  -0.0445313    0.561377     11.0409  -0.000451964
4820   -0.044298    0.561475     11.7378  -0.000101801
4830  -0.0424952    0.562232     8.25213  -0.000769651
4840   -0.028905    0.567939     12.6079  0.000133496
4850  -0.0451652    0.561111     12.7823  0.00190517
4860  -0.0670084    0.551938      11.218  -2.34701e-05
4870  -0.0446958    0.561308     11.7361  -0.000533779
4880  -0.0563329    0.556421     13.6552  0.000174631
4890  -0.0481884    0.559841      15.047  -0.000140622
4900  -0.0535204    0.557602     12.0855  0.000335231
4910   -0.054893    0.557026     13.3053  1.78421e-05
4920  -0.0538773    0.557452     11.5628  -0.000221663
4930  -0.0504597    0.558888      13.827  -0.000142219
4940  -0.0510329    0.558647      12.259  1.73382e-05
4950  -0.0508065    0.558742     12.7812  9.79044e-05
4960   -0.052991    0.557825     13.8265  0.00054116
4970  -0.0616297    0.554197     12.4337  0.000139032
4980  -0.0557716    0.556657      12.084  -0.000789203
4990  -0.0458456    0.560825     11.0372  -0.00171744
