Time   Number   
ps   
0           4           2
10           3           3
20           4           5
30           3           4
40           4           2
50           3           4
60           6           3
70           6           2
80           6           2
90           5           3
100           6           4
110           5           4
120           8           3
130           5           4
140           6           4
150           5           4
160           7           4
170           6           4
180           6           3
190           4           4
200           7           1
210           5           3
220           6           3
230           7           2
240           6           5
250           6           3
260           6           0
270           5           7
280           2           5
290           7           4
300           7           2
310           6           4
320           7           2
330           5           4
340           6           3
350           6           5
360           5           3
370           7           3
380           6           1
390           8           1
400           7           2
410           7           2
420           6           7
430           6           3
440           7           1
450           4           4
460           7           0
470           6           2
480           6           3
490           4           1
500           5           4
510           3           4
520           3           1
530           5           1
540           5           5
550           5           3
560           5           5
570           5           1
580           6           1
590           5           0
600           3           3
610           7           1
620           4           3
630           4           5
640           4           5
650           5           3
660           6           2
670           5           2
680           5           4
690           4           5
700           3           5
710           8           4
720           5           3
730           6           3
740           6           2
750           6           1
760           4           1
770           4           4
780           6           7
790           6           0
800           6           2
810           6           1
820           6           3
830           5           3
840           6           4
850           6           3
860           7           1
870           6           3
880           5           4
890           5           3
900           5           4
910           5           6
920           7           4
930           6           2
940           4           2
950           7           5
960           4           4
970           2           3
980           4           3
990           7           4
1000           7           4
1010           6           8
1020           6           2
1030           8           5
1040           7           4
1050           8           5
1060           5           3
1070           7           4
1080           6           3
1090           7           3
1100           6           1
1110           6           3
1120           6           4
1130           6           2
1140           6           7
1150           5           2
1160           8           2
1170           6           3
1180           5           3
1190           5           3
1200           7           2
1210           8           1
1220           6           4
1230           4           4
1240           7           8
1250           8           1
1260           4           4
1270           7           3
1280           7           7
1290           6           5
1300           7           3
1310           5           2
1320           7           6
1330           5           4
1340           7           2
1350           6           4
1360           5           5
1370           6           4
1380           4           5
1390           7           4
1400           4           3
1410           6           1
1420           6           1
1430           5           2
1440           6           6
1450           6           2
1460           8           1
1470           7           3
1480           5           4
1490           4           6
1500           6           2
1510           6           6
1520           7           6
1530           6           2
1540           5           2
1550           6           2
1560           5           4
1570           5           3
1580           6           3
1590           6           6
1600           4           5
1610           5           3
1620           5           6
1630           5           4
1640           6           6
1650           3           4
1660           4           2
1670           6           3
1680           3           5
1690           4           2
1700           6           5
1710           6           2
1720           7           1
1730           7           0
1740           5           0
1750           4           4
1760           7           2
1770           6           5
1780           5           3
1790           7           0
1800           5           1
1810           7           1
1820           7           4
1830           7           5
1840           6           3
1850           6           4
1860           7           7
1870           7           5
1880           6           1
1890           6           3
1900           5           4
1910           6           6
1920           6           6
1930           4           4
1940           5           4
1950           4           4
1960           5           1
1970           8           6
1980           6           1
1990           6           6
2000           7           3
2010           7           2
2020           8           3
2030           6           2
2040           4           5
2050           6           2
2060           5           4
2070           5           3
2080           4           4
2090           5           7
2100           5           4
2110           7           4
2120           7           3
2130           7           1
2140           7           4
2150           6           4
2160           4           7
2170           6           4
2180           8           5
2190           5           7
2200           8           7
2210           6           0
2220           4           8
2230           7           2
2240           6           1
2250           5           1
2260           5           5
2270           3           4
2280           6           1
2290           5           4
2300           5           7
2310           8           4
2320           2           9
2330           3           3
2340           6           5
2350           4           8
2360           3           5
2370           5           6
2380           5           4
2390           7           3
2400           5           2
2410           8           5
2420           7           3
2430           8           5
2440           6           4
2450           6           3
2460           7           3
2470           8           4
2480           6           1
2490           6           3
2500           8           3
2510           7           5
2520           7           3
2530           8           7
2540           7           5
2550           5           4
2560           7           6
2570           6           8
2580           8           4
2590          10           7
2600           5           5
2610           7           6
2620           9           6
2630           7           5
2640           6           4
2650           5           6
2660           6           3
2670           5           1
2680           6           5
2690           6           4
2700           7           3
2710           3           6
2720           7           5
2730           8           3
2740           8           2
2750           4           3
2760           6           4
2770           6           0
2780           5           5
2790           6           4
2800           6           4
2810           5           4
2820           6           4
2830           4           3
2840           4           4
2850           4           5
2860           6           4
2870           4           4
2880           5           3
2890           5           2
2900           5           4
2910           6           2
2920           3           4
2930           3           6
2940           4           5
2950           4           3
2960           6           4
2970           7           5
2980           7           4
2990           5           2
3000           5           4
3010           4           5
3020           4           6
3030           3           6
3040           6           4
3050           5           4
3060           5           5
3070           6           4
3080           4           9
3090           6           3
3100           6           3
3110           5           6
3120           2           5
3130           3           5
3140           5           5
3150           4           4
3160           4           4
3170           4           4
3180           5           2
3190           4           1
3200           5           1
3210           3           4
3220           4           1
3230           3           3
3240           5           1
3250           0           2
3260           3           3
3270           3           4
3280           5           3
3290           4           3
3300           4           2
3310           6           2
3320           2           5
3330           3           1
3340           3           2
3350           3           2
3360           4           2
3370           4           2
3380           4           2
3390           6           3
3400           3           3
3410           4           4
3420           5           2
3430           4           1
3440           4           7
3450           2           4
3460           4           2
3470           4           3
3480           4           3
3490           5           4
3500           7           7
3510           6           3
3520           4           6
3530           5           6
3540           6           4
3550           5           3
3560           4           4
3570           7           4
3580           8           6
3590           8           3
3600           6           5
3610           6           3
3620           5           4
3630           7           4
3640           4           2
3650           5           4
3660           6           2
3670           4           3
3680           6           3
3690           8           4
3700           6           4
3710           4           2
3720           4           4
3730           5           2
3740           4           4
3750           5           5
3760           8           5
3770           6           3
3780           5           2
3790           5           5
3800           8           5
3810           4           4
3820           7           3
3830           6           3
3840           4           5
3850           5           6
3860           5           0
3870           5           4
3880           7           4
3890           6           6
3900           6           5
3910           6           4
3920           6           3
3930           6           5
3940           7           3
3950           6           1
3960           5           6
3970           7           2
3980           7           7
3990           9           3
4000           9           4
4010           7           5
4020           7           2
4030           7           2
4040           5           0
4050           5           4
4060           5           4
4070           5           3
4080           5           3
4090           5           4
4100           6           3
4110           6           2
4120           5           3
4130           7           3
4140           5           3
4150           6           2
4160           7           3
4170           6           3
4180           6           5
4190           7           1
4200           6           6
4210           5           2
4220           6           2
4230           5           5
4240           6           3
4250           6           6
4260           7           5
4270           6           2
4280           6           3
4290           9           4
4300           7           2
4310           3           5
4320           7           3
4330           7           2
4340           6           4
4350           6           3
4360           7           4
4370           7           1
4380           7           3
4390           8           3
4400           5           7
4410           9           3
4420           6           5
4430           6           3
4440           8           2
4450           7           1
4460           6           4
4470           8           1
4480           7           1
4490           6           2
4500           6           6
4510           5           4
4520           5           4
4530           7           4
4540           6           3
4550           6           4
4560           6           2
4570           6           2
4580           7           2
4590           6           1
4600           6           0
4610           7           4
4620           7           2
4630           8           0
4640           8           2
4650           5           2
4660           4           4
4670           7           1
4680           7           0
4690           6           1
4700           9           4
4710           6           4
4720           7           2
4730           7           7
4740           7           2
4750           5           4
4760           7           2
4770           8           5
4780           7           1
4790           5           4
4800           7           4
4810           6           7
4820           8           2
4830           6           4
4840           6           6
4850           6           2
4860           6           3
4870           6           4
4880           5           7
4890           8           3
4900           7           6
4910           7           5
4920           7           3
4930           7           5
4940           8           3
4950           5           8
4960           7           2
4970           6           3
4980           7           4
4990           8           2
5000           6           5
5010           5           3
5020           7           4
5030           6           3
5040           6           1
5050           6           5
5060          10           3
5070           8           4
5080           9           5
5090           7           3
5100           6           6
5110           9           3
5120           8           2
5130           7           4
5140           7           0
5150           5           3
5160           5           5
5170           7           4
5180           5           6
5190           6           1
5200           6           4
5210           8           4
5220           9           4
5230           6           4
5240           7           2
5250           7           1
5260           4           5
5270           6           5
5280           6           2
5290           5           3
5300           5           2
5310           5           5
5320           5           4
5330           6           3
5340           4           4
5350           3           4
5360           3           5
5370           5           3
5380           6           2
5390           5           1
5400           6           1
5410           3           2
5420           7           3
5430           6           5
5440           5           1
5450           7           2
5460           5           3
5470           4           5
5480           5           3
5490           7           1
5500           7           2
5510           3           4
5520           7           6
5530           7           1
5540           6           2
5550           8           3
5560           7           5
5570           6           2
5580           7           3
5590           7           1
5600           7           2
5610           6           5
5620           8           2
5630           8           2
5640           6           3
5650           6           0
5660           8           3
5670           6           0
5680           7           2
5690           8           1
5700           7           3
5710           6           3
5720           7           3
5730           6           2
5740           8           2
5750           6           0
5760           8           2
5770           6           0
5780           8           3
5790           7           2
5800           7           2
5810           7           2
5820           5           4
5830           4           4
5840           7           3
5850           4           2
5860           5           3
5870           5           4
5880           6           5
5890           6           3
5900           7           1
5910           7           5
5920           4           3
5930           4           1
5940           7           3
5950           6           2
5960           4           2
5970           6           2
5980           5           4
5990           5           4
6000           7           2
6010           5           2
6020           6           3
6030           7           7
6040           7           1
6050           5           1
6060           5           2
6070           5           3
6080           6           7
6090           7           1
6100           6           2
6110           6           1
6120           7           2
6130           6           4
6140           6           3
6150           6           4
6160           6           2
6170           6           4
6180           6           5
6190           6           3
6200           6           4
6210           6           2
6220           4           4
6230           6           3
6240           6           2
6250           7           4
6260           9           2
6270           7           4
6280           3           4
6290           6           2
6300           7           3
6310           5           5
6320           3           6
6330           4          10
6340           2           3
6350           6           3
6360           3           4
6370           6           2
6380           4           3
6390           5           7
6400           5           4
6410           6           3
6420           5           3
6430           4           1
6440           6           2
6450           5           5
6460           3           2
6470           4           0
6480           7           3
6490           3           3
6500           5           2
6510           7           2
6520           5           1
6530           5           3
6540           5           1
6550           7           2
6560           6           3
6570           6           0
6580           6           1
6590           5           4
6600           5           3
6610           5           4
6620           4           1
6630           4           4
6640           4           2
6650           3           6
6660           5           0
6670           6           2
6680           7           2
6690           5           5
6700           2           5
6710           7           3
6720           5           2
6730           4           3
6740           5           4
6750           5           3
6760           6           1
6770           5           2
6780           4           1
6790           5           3
6800           4           3
6810           5           4
6820           4           3
6830           5           2
6840           6           2
6850           5           5
6860           4           1
6870           8           4
6880           5           4
6890           4           3
6900           5           4
6910           4           3
6920           7           4
6930           4           2
6940           7           2
6950           7           2
6960           7           2
6970           6           2
6980           6           0
6990           6           2
7000           6           1
7010           7           1
7020           5           2
7030           8           1
7040           6           3
7050           6           3
7060           4           1
7070           5           5
7080           4           2
7090           7           2
7100           6           1
7110           7           3
7120           6           1
7130           5           1
7140           6           2
7150           6           5
7160           6           0
7170           5           2
7180           6           0
7190           7           2
7200           6           2
7210           7           2
7220           6           0
7230           6           2
7240           5           4
7250           7           1
7260           4           3
7270           7           2
7280           7           3
7290           7           0
7300           8           2
7310           8           3
7320           9           1
7330           7           4
7340           5           5
7350           6           5
7360           7           3
7370           6           1
7380           7           3
7390           6           2
7400           8           2
7410           8           4
7420           6           4
7430           6           1
7440           7           4
7450           5           3
7460           6           5
7470           8           2
7480           7           4
7490           6           3
7500           5           3
7510           6           3
7520           6           3
7530           7           2
7540           6           5
7550           4           5
7560           7           3
7570           7           4
7580           6           2
7590           6           3
7600           6           6
7610           6           4
7620           6           3
7630           7           2
7640           8           2
7650           7           3
7660           6           4
7670           4           3
7680           5           2
7690           5           4
7700           5           4
7710           5           5
7720           7           1
7730           6           3
7740           5           4
7750           6           4
7760           5           4
7770           5           4
7780           6           2
7790           6           1
7800           6           3
7810           8           4
7820           8           2
7830           5           2
7840           7           1
7850           5           2
7860           7           2
7870           8           6
7880           7           3
7890           8           2
7900           6           3
7910           7           0
7920           5           3
7930           7           4
7940           6           3
7950           6           2
7960           6           2
7970           5           3
7980           6           3
7990           6           1
8000           8           2
8010           5           0
8020           6           1
8030           5           4
8040           5           2
8050           7           3
8060           6           3
8070           7           2
8080           7           2
8090           7           3
8100           7           2
8110           7           2
8120           8           3
8130           7           3
8140           5           4
8150           5           5
8160           6           2
8170           6           4
8180           5           2
8190           5           2
8200           6           3
8210           6           3
8220           6           1
8230           7           1
8240           4           3
8250           5           2
8260           4           5
8270           4           1
8280           5           5
8290           6           4
8300           7           2
8310           5           1
8320           6           2
8330           4           3
8340           5           1
8350           6           3
8360           6           5
8370           5           1
8380           5           3
8390           4           3
8400           7           1
8410           4           2
8420           7           1
8430           6           2
8440           5           6
8450           6           3
8460           6           3
8470           7           1
8480           6           3
8490           6           2
8500           7           5
8510           7           3
8520           5           2
8530           6           3
8540           7           7
8550           6           3
8560           8           2
8570           8           5
8580           7           4
8590          10           1
8600           6           1
8610           8           1
8620           7           2
8630           8           4
8640           7           6
8650           6           0
8660           8           5
8670           7           2
8680           5           2
8690           8           5
8700           6           4
8710           4           7
8720           9           2
8730           7           4
8740           8           5
8750           7           2
8760           9           3
8770           7           3
8780           6           6
8790           6           3
8800           6           4
8810           7           2
8820           5           1
8830           7           3
8840           8           3
8850           4           6
8860           7           3
8870           6           4
8880           8           3
8890           5           5
8900           7           1
8910           8           4
8920           5           1
8930           7           1
8940           8           2
8950           8           4
8960           6           2
8970           5           3
8980           6           3
8990           7           2
9000           6           3
9010           6           2
9020           4           1
9030           5           1
9040           7           3
9050           7           4
9060           7           2
9070           6           1
9080           5           3
9090           7           2
9100           6           2
9110           6           3
9120           6           4
9130           7           2
9140           6           2
9150           7           2
9160           6           2
9170           5           2
9180           5           0
9190           6           4
9200           8           2
9210           4           4
9220           6           6
9230           9           1
9240           9           2
9250           7           4
9260           6           2
9270           5           3
9280           8           2
9290           8           3
9300           5           4
9310           7           2
9320           6           4
9330           6           3
9340           6           4
9350           7           1
9360           6           3
9370           7           2
9380           6           6
9390           6           2
9400           6           3
9410           6           5
9420           6           2
9430           4           4
9440           6           0
9450           7           3
9460           6           1
9470           6           2
9480           8           2
9490           7           3
9500           5           2
9510           6           2
9520           7           2
9530           7           4
9540           5           4
9550           4           3
9560           6           1
9570           6           1
9580           5           2
9590           5           2
9600           5           3
9610           7           0
9620           6           2
9630           6           1
9640           5           4
9650           6           1
9660           5           5
9670           6           3
9680           6           4
9690           4           5
9700           8           4
9710           5           1
9720           4           4
9730           6           1
9740           5           5
9750           7           2
9760           6           0
9770           7           2
9780           6           0
9790           8           2
9800           4           4
9810           6           3
9820           6           3
9830           7           5
9840           6           5
9850           7           2
9860           6           5
9870           8           3
9880           7           2
9890           7           3
9900           7           3
9910           6           5
9920           8           2
9930           7           3
9940           8           2
9950           6           5
9960           8           2
9970           8           2
9980           6           0
9990           8           2
10000           7           3
