Time   C(t)   
ps   
0           1           1  3.3394e-10   0.0256485
10     0.74813    0.765859     1.30619   0.0143224
20    0.713552    0.733715    0.863306   0.0029963
30    0.688204    0.710151     1.67572  0.00246378
40    0.664276    0.687907   -0.793443  0.00219632
50    0.644278    0.669316   0.0620447  0.00184862
60    0.627304    0.653537    0.666517  0.00161692
70    0.611939    0.639254   -0.338851  0.00152598
80    0.596784    0.625166  -0.0893467  0.00136883
90    0.584563    0.613804   -0.362561  0.00119532
100    0.572878    0.602942   -0.238003  0.00115879
110    0.561387     0.59226   -0.511258  0.00104004
120    0.552077    0.583605    -1.22401  0.000906548
130    0.543256    0.575405   -0.702433   0.0010243
140    0.531591    0.564561   -0.848823  0.00106623
150    0.521931    0.555581     1.01103  0.000846449
160    0.514662    0.548824    0.213711  0.000801539
170    0.505901    0.540679    -1.22944  0.000886914
180    0.496924    0.532334    -0.41445  0.000898723
190    0.487926     0.52397    -1.60652  0.000787353
200    0.481177    0.517695   -0.228909  0.000774437
210    0.472437    0.509571   -0.563126  0.000757112
220    0.466035    0.503619   -0.334595  0.000739524
230    0.457647    0.495822    -1.52575  0.000724001
240    0.451555    0.490158   -0.314315  0.000614232
250    0.445362    0.484402    0.311376  0.000612032
260    0.439314    0.478779     1.37646  0.000574893
270    0.433864    0.473713   0.0797221  0.000662048
280    0.426073     0.46647    0.247944  0.000632758
290    0.421209    0.461949   -0.714762   0.0004246
300    0.417581    0.458576   0.0989609  0.00052101
310    0.410789    0.452262     1.01835  0.000563925
320    0.406302    0.448091    0.391476  0.000429945
330     0.40219    0.444268   -0.278287  0.000432034
340    0.397662    0.440059   -0.613566  0.000519316
350    0.391804    0.434613  -0.0705669  0.000502084
360     0.38762    0.430724    -1.28294  0.000397283
370    0.383858    0.427227    0.597379  0.000468844
380    0.378243    0.422007  -0.0514093  0.000478758
390    0.374283    0.418326    0.219968  0.000410235
400    0.370039     0.41438   -0.847119  0.000467148
410     0.36494     0.40964   -0.826022  0.000488654
420    0.360265    0.405295   -0.971963  0.000490847
430    0.355123    0.400514    -2.10132  0.000380491
440    0.352656    0.398221    -1.60106  0.000344616
450    0.348231    0.394107    -2.14484  0.000463723
460    0.343381    0.389599    -2.52096  0.00037725
470    0.340686    0.387093    -1.68586  0.000343524
480    0.336511    0.383212    -1.08004  0.000360245
490    0.333481    0.380395    -1.26911  0.000377233
500    0.328966    0.376198   -0.119313  0.00041852
510    0.325111    0.372614   -0.788381  0.000380121
520    0.321364    0.369131    0.298659  0.000323993
530    0.318631     0.36659     1.11244  0.000337529
540    0.314613    0.362856    0.610392  0.000450882
550    0.309613    0.358208    -1.06123  0.000444762
560    0.305718    0.354587    -1.83511  0.000327052
570    0.303072    0.352127    -2.44156  0.000273052
580    0.300257     0.34951    -2.75582  0.000256141
590    0.297949    0.347365    -1.29309  0.000387421
600    0.292508    0.342307    -1.27215  0.000448933
610    0.288971    0.339018    -1.62806  0.000281496
620    0.286878    0.337073    -1.46135  0.000217707
630    0.284616     0.33497    -1.23188  0.000350714
640    0.279864    0.330553    -1.29443  0.000280878
650    0.278999    0.329748   -0.271867  0.00025699
660    0.274724    0.325775   -0.669129  0.000431429
670     0.27037    0.321727  -0.0625756  0.000337033
680    0.267984    0.319508   -0.648258  0.000271845
690    0.264933    0.316673   -0.209475  0.000280508
700    0.262374    0.314293    0.250342  0.000313142
710     0.25867    0.310851   -0.544061  0.000266501
720    0.257043    0.309338   -0.293821  0.000256503
730     0.25354    0.306082   -0.565627  0.000264086
740    0.251762    0.304428    -1.17261  0.000224289
750    0.249055    0.301912    -1.00543  0.000281765
760    0.246126     0.29919   -0.253057  0.000307448
770    0.242906    0.296196    -1.02671  0.000248528
780    0.241156    0.294569    -1.06911  0.000187062
790    0.239164    0.292718      -1.174  0.000217327
800    0.236809    0.290528   -0.296209  0.000204712
810     0.23507    0.288912   -0.630998  0.000224354
820    0.232322    0.286357  -0.00379652  0.000229567
830    0.230479    0.284643   -0.254914  0.000170109
840     0.22892    0.283194   0.0163406  0.000165663
850    0.227166    0.281563    -0.46437  0.000215337
860    0.224613    0.279191    -1.00823  0.000241086
870    0.222344    0.277081    -0.13007  0.000180095
880    0.221011    0.275842   -0.444743  0.000108242
890    0.220179    0.275069   -0.591234  0.000166501
900    0.217681    0.272747   0.0778341  0.000245205
910    0.215275     0.27051   -0.508012  0.000226438
920    0.213153    0.268537   -0.278154  0.000178592
930    0.211703    0.267189   -0.236696  0.000154769
940    0.210057    0.265659   -0.592337  0.000169589
950    0.208311    0.264036    0.327216  0.00015781
960    0.206901    0.262725  -0.0285473  0.000217829
970    0.203955    0.259986    0.117904  0.000195041
980       0.203    0.259099    0.368267  0.000126121
990    0.201432    0.257641  -0.00861429  0.000137443
1000    0.200251    0.256544   -0.259466  0.000180475
1010    0.197823    0.254286  -0.0501741  0.000207669
1020    0.196098    0.252683    0.451101  0.000162875
1030    0.194565    0.251258    0.910654  0.000126515
1040    0.193568     0.25033    0.680408  0.000141539
1050    0.191735    0.248626    0.888843  0.000172485
1060    0.190118    0.247123    0.345128  0.000214756
1070    0.187439    0.244633    0.742718  0.000185596
1080    0.186406    0.243673    0.241217  0.000162657
1090    0.184186    0.241609     1.91294  0.000159316
1100     0.18322    0.240711     1.07628  0.000139935
1110    0.181388    0.239008     1.07634  0.000160007
1120     0.18002    0.237736    0.783645  0.000148083
1130    0.178426    0.236254     1.22265  0.000199183
1140    0.176036    0.234033     2.33014  0.00019208
1150    0.174584    0.232683     1.76565  0.000186363
1160    0.172309    0.230568     1.09709  0.000136995
1170    0.171844    0.230136     1.57688  0.000124966
1180    0.169809    0.228244     1.43109  0.000181314
1190    0.168218    0.226765     1.93232  0.00016422
1200    0.166525    0.225191      2.6011  0.000125853
1210    0.165701    0.224425     3.26979  9.49949e-05
1220    0.164625    0.223425     3.91727  0.000176528
1230    0.162171    0.221143     4.18946  0.000166827
1240    0.161288    0.220323     3.54122  7.57389e-05
1250    0.160656    0.219735     3.72872  8.09193e-05
1260     0.15967    0.218819      2.8925  0.000132651
1270    0.158003    0.217269     2.59988  0.000111532
1280    0.157439    0.216745     2.80889  8.27931e-05
1290    0.156347    0.215729     2.78807  0.000138479
1300     0.15467     0.21417     1.95142  0.000111011
1310    0.154127    0.213665     2.51549  6.96115e-05
1320    0.153278    0.212876     2.80793  0.00012802
1330    0.151566    0.211285     2.51496  0.000105388
1340     0.15117    0.210917     1.57437  2.70396e-05
1350    0.151025    0.210783     2.09628  0.00010843
1360    0.149001    0.208901     1.86656  0.000117472
1370    0.148676    0.208599     2.59749  6.82071e-05
1380    0.147637    0.207633     2.57646  0.000138412
1390    0.145908    0.206025     2.11733  0.000118285
1400    0.145271    0.205434     1.94917  0.000117365
1410    0.143561    0.203843     2.38865  0.000148284
1420    0.142306    0.202677     1.17589  0.000119164
1430    0.141177    0.201628     1.57274  7.06948e-05
1440    0.140892    0.201362     1.11264  7.4821e-05
1450    0.139681    0.200236    0.527363  0.000137911
1460    0.138134    0.198798    0.443345  0.000118891
1470    0.137303    0.198026    0.464604  9.21793e-05
1480     0.13629    0.197084    0.255149  0.000129799
1490    0.134707    0.195613    0.715252  0.000149424
1500    0.133302    0.194306  0.00421554  9.28983e-05
1510    0.132849    0.193886    0.296506  0.000117766
1520    0.130946    0.192117    0.903039  0.000162017
1530    0.129609    0.190873     1.32064  0.000104079
1540    0.128865    0.190182     1.34074  9.78336e-05
1550    0.127652    0.189054      1.5708  0.000163081
1560    0.125603     0.18715    0.692951  0.000102211
1570    0.125608    0.187154     1.15261  6.60572e-05
1580    0.124282    0.185921     1.50814  7.91952e-05
1590    0.124024    0.185682     1.17305  4.0229e-05
1600    0.123477    0.185173    0.859275  8.08768e-05
1610    0.122406    0.184178     1.71589  0.000121658
1620    0.121044    0.182912     1.65329  9.56994e-05
1630    0.120492    0.182399     1.08919  8.54664e-05
1640    0.119335    0.181323      1.3399  0.000109302
1650    0.118306    0.180366     1.15179  5.82356e-05
1660     0.11817     0.18024     1.61144  8.74221e-05
1670    0.116558    0.178741     1.06795  0.000121855
1680    0.115733    0.177974    0.692053  5.08536e-05
1690    0.115541    0.177796     1.73651  2.98526e-05
1700    0.115136    0.177419      1.4228  7.09742e-05
1710    0.114121    0.176476     1.00501  6.44557e-05
1720    0.113847    0.176221    0.753812  0.00010581
1730    0.112005    0.174509    0.649472  0.000131236
1740    0.111222    0.173781   0.0639735  7.04143e-05
1750    0.110597      0.1732    0.816408  1.46274e-05
1760     0.11093    0.173509    0.293892  4.13992e-05
1770    0.109769     0.17243    0.398253  0.000113524
1780    0.108659    0.171398   -0.144991  9.50921e-05
1790    0.107867    0.170662   0.0635655  0.000124785
1800    0.106163    0.169078    0.168395  9.95614e-05
1810    0.105876    0.168811    0.146952  9.05182e-05
1820    0.104353    0.167395   -0.731041  0.000121567
1830    0.103444    0.166551     -1.2124  0.000107115
1840    0.102211    0.165404    -1.33727  0.000108694
1850    0.101271     0.16453    -1.60965  6.44632e-05
1860    0.100921    0.164205   -0.983057  0.000107862
1870   0.0991134    0.162524    -1.71448  0.000136441
1880   0.0981927    0.161669   -0.815938  7.8626e-05
1890   0.0975408    0.161063   -0.669405  0.00011137
1900   0.0959653    0.159598   -0.983139  0.000134663
1910   0.0948476    0.158559   -0.752954  0.000116001
1920   0.0936453    0.157441    -1.06652  7.95349e-05
1930   0.0932569     0.15708   -0.648839  0.000104288
1940   0.0915595    0.155502    -0.96243  0.000182239
1950   0.0896121    0.153692    -1.50563  0.000143074
1960    0.088698    0.152842    -0.87886  0.000132533
1970   0.0869614    0.151228    -1.35941  6.98384e-05
1980   0.0873012    0.151544    -1.06671  7.83905e-05
1990   0.0853936     0.14977   -0.878493  8.53095e-05
2000    0.085595    0.149958     -1.0256  4.16659e-05
2010   0.0845603    0.148996   -0.419431  0.000104988
2020   0.0834953    0.148006   -0.168762  0.000101118
2030    0.082538    0.147116   -0.669956   7.792e-05
2040   0.0819369    0.146557   -0.607769  8.91887e-05
2050   0.0807542    0.145458   -0.858478  8.93984e-05
2060   0.0801489    0.144895    -1.10929  8.13358e-05
2070   0.0791275    0.143945    -1.21377  9.25925e-05
2080   0.0782971    0.143173   -0.419512  6.78781e-05
2090   0.0777699    0.142683   -0.733409  6.38898e-05
2100   0.0770193    0.141985   -0.106023  0.000133612
2110   0.0750977    0.140199   -0.670405  0.000150612
2120    0.074007    0.139185    -1.33943  9.80273e-05
2130   0.0731371    0.138377   -0.210914  7.73292e-05
2140   0.0724605    0.137748    -1.69479  6.91414e-05
2150   0.0717543    0.137091     -1.3813  8.61242e-05
2160    0.070738    0.136146    -1.59047  0.000105974
2170   0.0696348    0.135121    -2.74061  0.000104819
2180   0.0686416    0.134197    -1.98822  8.54179e-05
2190   0.0679264    0.133533    -1.73776  9.97353e-05
2200   0.0666469    0.132343    -1.88392  0.000101357
2210   0.0658993    0.131648    -2.03039  0.000103061
2220   0.0645857    0.130427    -1.31968  9.7641e-05
2230   0.0639465    0.129833     -1.7378  6.39774e-05
2240   0.0633061    0.129238    -1.08968  4.28949e-05
2250   0.0630886    0.129035    -1.42449  2.03583e-05
2260   0.0628989    0.128859    -1.17395  4.73807e-05
2270    0.062141    0.128154    -1.71713  8.3001e-05
2280   0.0612389    0.127316    -2.07269  6.3289e-05
2290   0.0608752    0.126978    -2.26101  8.48791e-05
2300   0.0595413    0.125738    -1.61279  0.000109307
2310   0.0586891    0.124945    -2.42839  8.10333e-05
2320   0.0579207    0.124231    -1.88466  4.83239e-05
2330   0.0577226    0.124047    -1.86436  6.85519e-05
2340   0.0565496    0.122957    -1.40409  6.86668e-05
2350   0.0563492     0.12277     -2.0309  4.16055e-05
2360   0.0557175    0.122183    -1.63391  0.000112186
2370   0.0541055    0.120685    -2.03111  8.93798e-05
2380   0.0539299    0.120521    -1.92679  6.08478e-05
2390   0.0528886    0.119553    -1.48774  0.000102847
2400    0.051873    0.118609    -1.32042  0.000104575
2410   0.0507971    0.117609    -1.55073  5.99319e-05
2420   0.0506744    0.117495    -1.65535  5.8705e-05
2430    0.049623    0.116518    -1.38355  8.34946e-05
2440   0.0490045    0.115943     -1.1745  8.08273e-05
2450   0.0480064    0.115015    -1.25846  9.26677e-05
2460   0.0471511     0.11422   -0.526791  8.41841e-05
2470   0.0463227     0.11345    -1.02886  0.000113591
2480   0.0448793    0.112108    -1.21649  7.29255e-05
2490   0.0448642    0.112094    -1.07079  1.02816e-05
2500   0.0446737    0.111917    -1.17511  3.07977e-05
2510   0.0442483    0.111521    -1.84367  6.7565e-05
2520   0.0433224     0.11066    -1.23781  7.06673e-05
2530   0.0428349    0.110207    -1.11249  8.5593e-05
2540   0.0416105    0.109069    -1.04978  8.28173e-05
2550   0.0411786    0.108668    -1.34239  6.39126e-05
2560   0.0403322    0.107881    -1.17513  6.99718e-05
2570   0.0397791    0.107367   -0.485558  2.57999e-05
2580   0.0398162    0.107401   -0.151422  4.81339e-05
2590   0.0388165    0.106472    -1.15459  3.92752e-05
2600   0.0390307    0.106671    -1.28039  4.83792e-05
2610   0.0378489    0.105572   -0.590367  0.000104957
2620   0.0369316    0.104719   -0.945416  7.09932e-05
2630    0.036429    0.104252   -0.652881    7.42e-05
2640   0.0354476     0.10334   -0.945681  4.89796e-05
2650   0.0354494    0.103342   -0.967003  8.35841e-05
2660   0.0337759    0.101786    -0.75769  0.000100173
2670    0.033446    0.101479   -0.779053  8.25264e-05
2680   0.0321254    0.100252    -1.11337  7.81767e-05
2690   0.0318824    0.100026    0.474984  7.09583e-05
2700   0.0307062   0.0989323    -0.11031  7.86136e-05
2710   0.0303101   0.0985641   -0.319276  5.62633e-05
2720    0.029581   0.0978862  -0.00595019  5.63996e-05
2730   0.0291822   0.0975155    -0.42382  3.84253e-05
2740   0.0288125   0.0971718    0.391047  1.88506e-05
2750   0.0288051    0.097165    0.244636  5.22896e-05
2760   0.0277667   0.0961997    0.307538  5.38737e-05
2770   0.0277277   0.0961634    0.223499  1.60792e-05
2780   0.0274451   0.0959007   -0.152708  4.04759e-05
2790   0.0269182   0.0954109    0.098165  5.42941e-05
2800   0.0263592   0.0948913    0.140032  4.04501e-06
2810   0.0268373   0.0953357    0.662261  8.71643e-06
2820   0.0261849   0.0947292    0.495305  4.5417e-05
2830   0.0259289   0.0944913     1.01772  -1.11669e-05
2840   0.0264082   0.0949368     0.49502  -6.52997e-06
2850   0.0260595   0.0946127     0.74581  3.95234e-05
2860   0.0256177    0.094202    0.515993  5.19346e-05
2870   0.0250208   0.0936471    0.975709  6.44082e-05
2880   0.0243296   0.0930045    0.996663  2.90686e-05
2890   0.0244394   0.0931066     1.33092  2.14775e-05
2900      0.0239   0.0926052     0.43222  4.00695e-05
2910   0.0236381   0.0923616    0.766294  6.19177e-05
2920   0.0226617    0.091454    0.578426  5.58309e-05
2930   0.0225214   0.0913236    0.494897  1.71691e-05
2940   0.0223183   0.0911348    0.557554  -6.14366e-06
2950   0.0226443   0.0914378    0.453112  4.06506e-05
2960   0.0215053    0.090379    0.683235  7.03456e-05
2970   0.0212374     0.09013    0.871308  4.92418e-06
2980   0.0214068   0.0902874    0.494999  4.25493e-05
2990   0.0203864   0.0893389    0.557595  3.94456e-05
3000   0.0206179   0.0895541     1.16419  3.92646e-07
3010   0.0203786   0.0893316   0.0558696  3.18137e-05
3020   0.0199816   0.0889626     1.03806  3.18877e-05
3030   0.0197408   0.0887387    0.787514  -4.27747e-06
3040   0.0200672   0.0890421    0.369481  -2.63676e-05
3050   0.0202682   0.0892289    0.327083  1.15071e-05
3060    0.019837   0.0888282    0.368909   8.279e-05
3070   0.0186124   0.0876897   0.0557475  4.64801e-05
3080   0.0189074    0.087964   -0.258252  1.65324e-05
3090   0.0182817   0.0873823   -0.173988  3.72063e-05
3100   0.0181633   0.0872722  -0.0909286  4.37231e-05
3110   0.0174072   0.0865694    0.662016  7.41285e-05
3120   0.0166807    0.085894    0.891751  6.15618e-05
3130    0.016176   0.0854248    0.683031  4.89514e-05
3140   0.0157017   0.0849839    0.598992  2.6132e-06
3150   0.0161237   0.0853762    0.870614  2.83657e-05
3160   0.0151344   0.0844565    0.494775  2.35245e-05
3170   0.0156533   0.0849389    0.118261  -3.66392e-06
3180   0.0152077   0.0845246    0.473412  6.88079e-05
3190   0.0142771   0.0836596     1.03837  3.99141e-05
3200   0.0144094   0.0837825      1.1426  1.90835e-05
3210   0.0138954   0.0833048    0.620048  4.01405e-05
3220   0.0136066   0.0830362    0.808365  1.92013e-05
3230   0.0135114   0.0829478    0.724591  5.66204e-05
3240   0.0124742   0.0819835     0.82938  9.4128e-05
3250   0.0116288   0.0811977     1.05863  5.20796e-05
3260   0.0114326   0.0810153    0.808039  2.61801e-05
3270   0.0111052    0.080711     1.05907  6.63139e-06
3280   0.0112999    0.080892     1.20483  4.26892e-05
3290   0.0102515   0.0799173     1.85327  2.79866e-05
3300   0.0107402   0.0803716      1.6227  2.48925e-05
3310  0.00975361   0.0794545     1.16294  6.43001e-05
3320  0.00945421   0.0791762    0.954081  -1.28095e-05
3330   0.0100098   0.0796926    0.786656  -6.19618e-06
3340  0.00957813   0.0792914    0.744729  5.6452e-05
3350  0.00888076   0.0786431    0.243085  5.49517e-05
3360   0.0084791   0.0782697   0.0338549  5.18252e-05
3370  0.00784426   0.0776795    0.556166  2.37688e-05
3380  0.00800372   0.0778278    0.723652  2.0575e-05
3390  0.00743276    0.077297    0.702903  5.05307e-05
3400   0.0069931   0.0768883    0.765764  5.56899e-05
3410  0.00631896   0.0762616    0.389332  4.91651e-05
3420   0.0060098   0.0759742    0.891098  1.75951e-05
3430  0.00596706   0.0759345    0.661302  3.27281e-05
3440  0.00535524   0.0753657    0.974668  3.61352e-05
3450  0.00524436   0.0752626    0.096614  1.95058e-05
3460  0.00496512   0.0750031     0.78633  4.64553e-05
3470  0.00431525   0.0743989     0.76558  2.63512e-05
3480   0.0044381   0.0745131    0.619231   3.661e-05
3490  0.00358305   0.0737183    0.431158  4.84754e-05
3500  0.00346859   0.0736119   0.0337115  1.82347e-05
3510  0.00321836   0.0733792    0.493856  5.55572e-05
3520  0.00235745   0.0725789    0.577426  9.81009e-05
3530  0.00125634   0.0715553   -0.342393  6.77929e-05
3540  0.00100159   0.0713185     0.22205  1.87031e-05
3550  0.000882276   0.0712076    0.117098  5.79841e-05
3560  -0.00015809   0.0702404    0.138358  6.49288e-05
3570  -0.0004163   0.0700004    0.618883  -3.2139e-06
3580  -9.38122e-05   0.0703002     1.16237  2.25093e-05
3590  -0.000866487   0.0695819     1.35026  7.05135e-06
3600  -0.000234839   0.0701691    0.953163  -9.99876e-06
3610  -0.000666512   0.0697678    0.890547  5.18436e-05
3620  -0.00127171   0.0692052    0.848557  1.06287e-05
3630  -0.000879086   0.0695702     2.04014  5.5546e-06
3640  -0.0013828   0.0691019     1.55892  2.45226e-05
3650  -0.00136954   0.0691143     1.91415  5.40825e-05
3660  -0.00246445   0.0680964     1.91436  5.06967e-05
3670  -0.00238347   0.0681717     1.43322  2.48905e-05
3680  -0.00296226   0.0676337     1.87206  4.05765e-05
3690   -0.003195   0.0674173     2.06024  1.45912e-05
3700  -0.00325409   0.0673624     2.16446  4.18047e-06
3710  -0.00327861   0.0673396     1.43295  4.19611e-06
