Time   C(t)   
ps   
0           1           1  3.2221e-10   0.0227356
10    0.776926     0.79919    0.842621   0.0130411
20    0.739178    0.765209    0.495587  0.00334662
30    0.709994    0.738938     0.62271  0.00271518
40    0.684874    0.716326    -1.07885  0.00235255
50    0.662943    0.696583    -1.66087  0.00215194
60    0.641835    0.677582   -0.564223  0.00188246
70    0.625293    0.662691    -1.08225  0.00174178
80       0.607    0.646223   -0.588376  0.00168286
90    0.591636    0.632393   -0.589721  0.00146355
100    0.577729    0.619874   -0.806039  0.00136625
110    0.564311    0.607795    -0.61358  0.00135492
120     0.55063     0.59548    -1.45333  0.00126067
130    0.539098    0.585098    -2.46538  0.00105739
140    0.529483    0.576443   -0.938603  0.00102049
150    0.518688    0.566725    -1.49836  0.000975066
160    0.509981    0.558888    -1.49866  0.000852567
170    0.501636    0.551376    -1.71464  0.000868554
180     0.49261    0.543251   -0.962651  0.000945206
190    0.482732    0.534359   -0.360281  0.000904222
200    0.474526    0.526971    -2.06096  0.000753555
210    0.467661    0.520792   -0.727664  0.000751641
220    0.459493    0.513439   -0.254707  0.00086775
230    0.450306    0.505169    -1.24405  0.000775012
240    0.443993    0.499485    -1.05183  0.00066786
250    0.436949    0.493145    -1.31038  0.000669129
260     0.43061    0.487438    -1.09591  0.000683744
270    0.423274    0.480835    -2.02145  0.000681543
280    0.416979    0.475168    -2.62422  0.000633691
290      0.4106    0.469426    -3.31358  0.000624138
300    0.404496    0.463931    -3.24957  0.000612265
310    0.398355    0.458403    -1.95931  0.00064607
320    0.391575    0.452299    -1.48629  0.000615947
330    0.386036    0.447313    -2.45548  0.000626986
340    0.379035    0.441011    -1.59493  0.000724952
350    0.371537    0.434261  -0.0670804  0.000613819
360    0.366759     0.42996  -0.0247624  0.00058132
370    0.359911    0.423795    -1.10072  0.00052536
380    0.356252    0.420502      -1.188  0.000485359
390    0.350203    0.415057    -1.79025  0.000600567
400     0.34424    0.409689    -1.40304  0.000470345
410    0.340797    0.406589     -2.0065  0.000531156
420    0.333617    0.400126    -1.18838  0.000516227
430    0.330472    0.397295    -2.09314  0.000432049
440    0.324976    0.392348     -1.1036  0.000470705
450    0.321058     0.38882    -2.35215  0.000393511
460    0.317106    0.385263    -1.96542  0.00047517
470    0.311554    0.380265    -2.00814  0.000471152
480    0.307683     0.37678    -1.68633  0.000464867
490    0.302257    0.371896   -0.825264  0.000541933
500    0.296844    0.367023    -1.12681  0.00043485
510     0.29356    0.364067   -0.933907  0.000341111
520    0.290022    0.360882    0.184642  0.000375079
530    0.286059    0.357314   0.0338082  0.000373369
540    0.282555     0.35416   -0.160184  0.000343321
550    0.279192    0.351133     -0.4402  0.000377424
560    0.275006    0.347365   -0.741658  0.000385603
570     0.27148    0.344191   -0.268386  0.000377809
580     0.26745    0.340563    0.269089  0.000412071
590    0.263239    0.336772    0.354377  0.000390552
600    0.259639    0.333531   -0.700496  0.00043869
610    0.254465    0.328874   -0.829215  0.000408433
620     0.25147    0.326178   -0.528744  0.000370795
630    0.247049    0.322198    -1.56133  0.00037402
640     0.24399    0.319444    -1.62642   0.0003262
650    0.240525    0.316325    -1.21718  0.000334369
660    0.237303    0.313424   -0.593576  0.000368847
670    0.233148    0.309684   -0.636924  0.000303256
680    0.231238    0.307964   -0.185872  0.000235093
690    0.228446    0.305452    -1.41226  0.000340898
700     0.22442    0.301827    -1.11104  0.000357948
710    0.221287    0.299007    -1.47703  0.000253157
720    0.219356    0.297269    -1.79975  0.000207159
730    0.217144    0.295278    -2.12321  0.000197516
740    0.215406    0.293713    -1.71477  0.000272378
750    0.211696    0.290374    -1.54243  0.000362538
760    0.208155    0.287186    -2.51057  0.000263474
770    0.206427     0.28563    -2.03786  0.000254009
780    0.203075    0.282613    -1.86586  0.000289927
790    0.200628     0.28041    -2.36112  0.000269065
800    0.197694    0.277769    -1.62949  0.000269615
810    0.195236    0.275556    -1.99557  0.000235915
820    0.192976    0.273521      -2.964  0.000231367
830    0.190609    0.271391    -2.42671  0.000258594
840    0.187804    0.268866    -1.54491  0.000231064
850    0.185988    0.267231    -2.03967  0.00024696
860    0.182864    0.264419    -2.53441  0.000237226
870    0.181243     0.26296    -2.77097  0.000184044
880    0.179184    0.261106    -2.29791  0.000178034
890    0.177682    0.259754    -1.54546  0.00016692
900    0.175845    0.258101    -1.82568  0.000226314
910    0.173156     0.25568    -2.10566  0.000280755
920     0.17023    0.253046    -1.45981  0.000219598
930    0.168764    0.251726    -2.21336  0.000191839
940    0.166393    0.249592    -2.40697  0.000180585
950    0.165152    0.248475    -1.35321  0.000159094
960    0.163211    0.246728    -2.12809  0.000178823
970    0.161576    0.245255    -1.28886  0.000238733
980    0.158437     0.24243    -1.78362  0.000239177
990    0.156792    0.240949    -2.75196  0.000189248
1000    0.154652    0.239022    -3.09658  0.000233757
1010    0.152117    0.236741    -2.49423  0.000180969
1020    0.151032    0.235764    -2.12887  0.000167138
1030    0.148775    0.233732    -2.92479  0.000219553
1040    0.146641    0.231811    -3.05401  0.000163995
1050    0.145495    0.230779    -2.27978  0.000134379
1060    0.143954    0.229392    -2.06496  0.000116361
1070    0.143167    0.228684    -2.66748  0.00011797
1080    0.141594    0.227268    -2.92538  0.000173204
1090    0.139703    0.225566    -2.45189  0.000118504
1100    0.139224    0.225135     -2.4092  8.99516e-05
1110    0.137904    0.223946    -1.93557  0.00013086
1120    0.136607    0.222779    -1.80651  9.03875e-05
1130    0.136097    0.222319    -2.45271  9.72196e-05
1140    0.134663    0.221028    -2.51723  9.60551e-05
1150    0.134175     0.22059    -2.17312  0.000146495
1160    0.131733    0.218391     -2.0437  0.000177109
1170    0.130633    0.217401    -2.53888  5.58443e-05
1180    0.130616    0.217385    -2.53897  8.91641e-05
1190     0.12885    0.215796    -2.94814  0.000198015
1200    0.126656     0.21382    -3.12025  0.000174544
1210    0.125359    0.212653    -2.90494  9.12547e-05
1220    0.124831    0.212177    -2.75474  7.02083e-05
1230    0.123955    0.211389    -2.47502  0.000126316
1240    0.122304    0.209903    -2.25973  0.00016124
1250     0.12073    0.208486    -1.89413  0.000156254
1260    0.119179     0.20709    -1.85137  0.000161963
1270    0.117491     0.20557    -1.87319  0.00016902
1280    0.115799    0.204047    -1.83006  0.000137243
1290    0.114746    0.203099    -1.67966  0.00011346
1300     0.11353    0.202004     -1.9383  0.000160722
1310    0.111532    0.200206    -1.93779  0.000140875
1320    0.110712    0.199468    -1.65874  0.000114341
1330    0.109245    0.198147    -1.18524  0.000169822
1340    0.107316    0.196411    -1.48672  0.000217417
1350    0.104896    0.194233    -1.76611  0.000174657
1360    0.103822    0.193266      -1.831  0.000131865
1370    0.102259    0.191859    -2.11095  0.000170062
1380    0.100421    0.190204    -1.31518  0.000173148
1390   0.0987961    0.188741    -1.09966  0.000126066
1400   0.0978999    0.187935    -0.88477  9.37965e-05
1410   0.0969202    0.187053    -1.68076  9.94503e-05
1420   0.0959109    0.186144    -1.85324  7.65268e-05
1430   0.0953896    0.185675    -1.40158  0.000109449
1440   0.0937219    0.184174    -1.55159  0.00012603
1450    0.092869    0.183406    -1.61641  9.63125e-05
1460   0.0917957     0.18244    -1.48722  6.3682e-05
1470   0.0915954    0.182259    -1.18659  7.07306e-05
1480   0.0903811    0.181166    -1.22937  7.76887e-05
1490   0.0900416    0.180861    -1.70289  1.33973e-05
1500   0.0901131    0.180925    -1.57394  7.39392e-05
1510   0.0885628     0.17953    -1.44476  0.000129061
1520   0.0875319    0.178601    -1.22964  0.000112855
1530   0.0863057    0.177498    -1.20805  0.000115879
1540   0.0852143    0.176515    -1.50926  5.67768e-05
1550   0.0851702    0.176475    -1.14427  8.3239e-05
1560   0.0835495    0.175017    -0.56334  0.000191335
1570   0.0813435    0.173031   -0.498886  0.000134927
1580    0.080851    0.172587    -1.16598  5.48579e-05
1590   0.0802464    0.172043   -0.262491  5.91476e-05
1600    0.079668    0.171522    -1.08023  0.000106583
1610   0.0781147    0.170124   -0.585119  7.33592e-05
1620   0.0782008    0.170202   -0.413346  0.000102917
1630   0.0760563    0.168271   -0.434747  0.000151886
1640   0.0751631    0.167467   -0.198458  0.000134157
1650   0.0733732    0.165856   -0.284523  0.000161013
1660   0.0719429    0.164568   -0.478095  0.000102571
1670   0.0713218    0.164009   -0.306322  9.02474e-05
1680   0.0701379    0.162944   -0.327744  8.90285e-05
1690   0.0695412    0.162406    -1.05957  7.38062e-05
1700   0.0686618    0.161615   -0.521611  6.13045e-05
1710   0.0683151    0.161303     -0.8233  7.27508e-05
1720   0.0672068    0.160305   -0.866627  0.000132149
1730   0.0656721    0.158923    -1.12448  9.57109e-05
1740   0.0652926    0.158582   -0.500819  8.47049e-05
1750    0.063978    0.157398   -0.522031  9.05234e-05
1760   0.0634821    0.156952   -0.909638  7.11307e-06
1770   0.0638358     0.15727    -0.50105  4.97757e-05
1780   0.0624866    0.156056  -0.0274206  0.000103811
1790   0.0617596    0.155401   -0.543873  6.42432e-05
1800   0.0612017    0.154899    -1.14658  4.87478e-05
1810   0.0607846    0.154524   -0.522619  3.31843e-05
1820    0.060538    0.154302   -0.931438  2.32713e-05
1830   0.0603192    0.154105   -0.393627  8.76984e-05
1840   0.0587841    0.152723   -0.931312  9.21257e-05
1850   0.0584767    0.152446   -0.802467  4.36816e-05
1860   0.0579104    0.151936   -0.565841  -6.47977e-06
1870   0.0586063    0.152563   -0.264992  2.95179e-05
1880   0.0573201    0.151405   -0.415532  0.000127327
1890   0.0560597     0.15027    -1.27614  9.16222e-05
1900   0.0554876    0.149755   -0.630841  3.13023e-05
1910   0.0554337    0.149707    -1.29783  6.02979e-05
1920   0.0542817     0.14867   -0.846087  8.78572e-05
1930   0.0536765    0.148125   -0.695253  3.59761e-05
1940   0.0535621    0.148022    0.380285  4.19023e-05
1950   0.0528385    0.147371   -0.415847  5.50279e-05
1960   0.0524616    0.147031   -0.286792  7.22297e-06
1970    0.052694    0.147241   -0.631262  2.03822e-05
1980   0.0520539    0.146664   -0.588607  1.01794e-05
1990   0.0524904    0.147057   -0.395056  -2.3279e-05
2000   0.0525195    0.147084    -1.23439  1.75299e-05
2010   0.0521398    0.146742   -0.954666  3.07137e-05
2020   0.0519052    0.146531   -0.997468  1.17604e-05
2030   0.0519046     0.14653    -0.93293  1.03384e-05
2040   0.0516985    0.146344    -1.72919  2.50367e-05
2050   0.0514039    0.146079    -1.42817  8.3892e-05
2060   0.0500206    0.144834   -0.825653  4.28192e-05
2070   0.0505475    0.145308   -0.717978  -1.5907e-05
2080   0.0503388     0.14512    -1.70808  0.000103536
2090   0.0484768    0.143444    -1.14839  0.000130287
2100    0.047733    0.142775    -1.08393  2.26947e-05
2110   0.0480229    0.143036   -0.826011  -1.27213e-05
2120   0.0479875    0.143004   -0.718608  5.39627e-05
2130   0.0469437    0.142064    -1.19188  5.69962e-05
2140   0.0468475    0.141978    -1.36418  7.80141e-05
2150   0.0453834     0.14066    -1.70846  7.36622e-05
2160   0.0453743    0.140651    -1.17096  2.32738e-05
2170   0.0449179    0.140241    -1.40767  0.000105384
2180   0.0432666    0.138754     -1.6012  6.67255e-05
2190   0.0435834    0.139039    -2.01038  1.46562e-05
2200   0.0429735     0.13849    -1.92444  7.15606e-05
2210   0.0421522    0.137751    -2.26885  2.72635e-06
2220    0.042919    0.138441    -2.37663  2.38648e-05
2230   0.0416749    0.137321    -2.24711  7.49318e-05
2240   0.0414203    0.137092    -1.92446  4.20619e-05
2250   0.0408336    0.136564    -2.39778  9.19137e-05
2260   0.0395821    0.135437   -0.827019  9.81404e-05
2270   0.0388708    0.134797    -1.75242  4.0975e-05
2280   0.0387626      0.1347    -1.81721  4.56646e-05
2290   0.0379575    0.133975     -2.3982  7.60566e-05
2300   0.0372414     0.13333    -2.37648  5.34918e-05
2310   0.0368877    0.133012    -2.03249  7.79692e-05
2320    0.035682    0.131927    -2.24753  0.000111597
2330   0.0346558    0.131003    -2.78519  1.59077e-05
2340   0.0353639     0.13164    -3.04356  -8.34279e-06
2350   0.0348226    0.131153    -2.72091  3.43282e-05
2360   0.0346773    0.131022     -1.8602  -3.80222e-06
2370   0.0348987    0.131221    -2.31222  -2.67552e-05
2380   0.0352124    0.131504    -2.20488  2.22508e-05
2390   0.0344536    0.130821    -2.24774  6.37004e-05
2400   0.0339384    0.130357    -2.35548  7.31166e-05
2410   0.0329913    0.129504    -2.01114  6.09599e-05
2420   0.0327192    0.129259    -2.03268  7.6578e-05
2430   0.0314598    0.128126    -2.16168  9.67919e-05
2440   0.0307834    0.127517    -1.83917  3.98892e-05
2450    0.030662    0.127407    -1.12923  2.45477e-05
2460   0.0302924    0.127075    -1.17231  1.53036e-05
2470   0.0303559    0.127132   -0.914408  4.48536e-05
2480   0.0293954    0.126267    -1.36617  5.42326e-05
2490   0.0292712    0.126156    -1.02189  3.73227e-05
2500   0.0286489    0.125595    -1.38758  5.60784e-05
2510   0.0281497    0.125146   -0.721067  9.36853e-05
2520   0.0267752    0.123909    -1.40923  7.5132e-05
2530    0.026647    0.123793   -0.742656   6.916e-05
2540    0.025392    0.122663    -1.60299  9.59001e-05
2550    0.024729    0.122067    -1.38797  4.91276e-05
2560   0.0244094    0.121779    -1.34498  -3.55283e-05
2570   0.0254396    0.122706    -1.38842  -1.97948e-05
2580   0.0248053    0.122135    -1.23769  6.50804e-05
2590    0.024138    0.121535    -1.25913  -1.36109e-05
2600   0.0250776     0.12238    -1.00146  4.01628e-05
2610   0.0233347    0.120812    -1.51747  0.000101772
2620   0.0230421    0.120548    -1.71109  7.20502e-05
2630   0.0218937    0.119514    -1.62508  4.20594e-05
2640   0.0222009    0.119791    -1.64695  2.95754e-05
2650   0.0213022    0.118982    -1.38871  9.47629e-05
2660   0.0203057    0.118085    -1.04428  3.61077e-05
2670   0.0205801    0.118332    -1.43166  -1.95167e-05
2680    0.020696    0.118436    -1.06577  1.71372e-05
2690   0.0202373    0.118023   -0.893553  3.63361e-05
2700   0.0199693    0.117782    -1.36708  -1.95895e-05
2710   0.0206291    0.118376   -0.872594  2.53124e-05
2720    0.019463    0.117326    -1.00119  4.1312e-05
2730   0.0198029    0.117632    -0.80772  2.54498e-05
2740    0.018954    0.116868    -1.04428  5.28074e-05
2750   0.0187467    0.116681     -1.2165  3.20397e-05
2760   0.0183132    0.116291   -0.614231  -9.85954e-06
2770   0.0189439    0.116859   -0.808119  -1.72649e-06
2780   0.0183478    0.116322   -0.765002  5.64566e-05
2790   0.0178148    0.115843     -1.2383  -9.84464e-06
2800   0.0185447      0.1165   -0.765254  1.58045e-06
2810   0.0177832    0.115814   -0.893953  5.83726e-05
2820   0.0173772    0.115449    -0.59302  4.22833e-05
2830   0.0169375    0.115053   -0.527998  -1.95445e-05
2840   0.0177681    0.115801   -0.270161  -4.07272e-05
2850   0.0177521    0.115786    -1.19526  4.87166e-06
2860   0.0176707    0.115713   -0.506724  4.25241e-05
2870   0.0169016     0.11502   -0.808035  3.76761e-05
2880   0.0169171    0.115034   -0.679127  -1.96136e-05
2890   0.0172938    0.115374    -1.02347  1.32351e-05
2900   0.0166524    0.114796   -0.829835  3.32342e-06
2910   0.0172274    0.115314   -0.528503  -7.07595e-05
2920   0.0180676     0.11607    -1.02372  -1.64684e-05
2930   0.0175567     0.11561   -0.141274  5.94296e-05
2940    0.016879       0.115   -0.528545  2.81323e-05
2950   0.0169941    0.115104   -0.722453  8.3752e-06
2960   0.0167115    0.114849   -0.808161  -2.64864e-05
2970   0.0175238    0.115581  0.00935033  -3.97821e-05
2980   0.0175072    0.115566   -0.162926  6.82562e-05
2990   0.0161587    0.114352   -0.313467  6.83534e-05
3000   0.0161401    0.114335   -0.335098  2.52392e-05
3010   0.0156539    0.113897   0.0736365  4.70138e-05
3020   0.0151998    0.113489   -0.227633  0.000102407
3030   0.0136058    0.112054   -0.248949  7.74669e-05
3040   0.0136505    0.112094  -0.0768406  8.95737e-06
3050   0.0134266    0.111892    0.095163  4.59618e-05
3060   0.0127313    0.111266   -0.528734  8.47929e-05
3070   0.0117308    0.110366    -1.08803  3.94783e-05
3080   0.0119417    0.110556   -0.700779  2.52356e-06
3090   0.0116803     0.11032    -0.52865  2.61832e-05
3100    0.011418    0.110084   -0.205875  -6.01343e-05
3110    0.012883    0.111403   -0.679715  -4.66157e-05
3120   0.0123503    0.110923   -0.980606  -7.81892e-06
3130   0.0130394    0.111544   -0.292171  -5.87927e-05
3140   0.0135262    0.111982   -0.485869  7.46553e-06
3150   0.0128901    0.111409   -0.700947  2.1057e-05
3160   0.0131051    0.111603   -0.744064  2.3853e-06
3170   0.0128424    0.111366   -0.636535  1.94699e-05
3180   0.0127157    0.111252   -0.980879  -4.45656e-06
3190   0.0129315    0.111447   -0.357171  6.07762e-05
3200   0.0115001    0.110158   -0.808896  0.000115837
3210   0.0106147    0.109361   -0.851866   7.318e-05
3220   0.0100365    0.108841   -0.744127  1.65318e-05
3230   0.0102841    0.109063    -1.11008  3.56346e-05
3240  0.00932385    0.108199    -1.08858  6.15852e-05
3250  0.00905241    0.107955    -1.13167  2.54544e-05
3260  0.00881476    0.107741     -1.1532  -3.16888e-05
3270  0.00968618    0.108525    -1.21797  -2.47575e-05
3280  0.00930991    0.108186   -0.593818  1.3337e-05
3290  0.00941944    0.108285    -0.35736  7.6126e-05
3300  0.00778739    0.106816   -0.808917  7.27338e-05
3310  0.00796476    0.106976   -0.314349  -1.60165e-05
3320  0.00810772    0.107104   -0.744547  2.94284e-05
3330   0.0073762    0.106446   -0.701284  -1.08585e-05
3340  0.00832489      0.1073   -0.379076  -4.41053e-05
3350   0.0082583     0.10724   -0.077723  3.12671e-05
3360  0.00769955    0.106737   -0.809148  -2.12672e-06
3370  0.00830084    0.107278     -0.5083  3.67396e-05
3380  0.00696476    0.106075    -1.11056  9.49686e-05
3390  0.00640147    0.105568   -0.486794  3.34264e-05
3400  0.00629623    0.105474   -0.271737  8.77199e-06
3410  0.00622603     0.10541    -1.00337  6.37831e-05
3420  0.00502057    0.104325    -1.21853  5.14542e-05
3430  0.00519694    0.104484   -0.723819  1.61345e-05
3440  0.00469788    0.104035    -0.68085  4.9988e-05
3450  0.00419718    0.103584   -0.960382  3.22971e-05
3460  0.00405193    0.103453   -0.939107  4.67204e-05
3470  0.00326277    0.102743   -0.960424  5.57638e-05
3480  0.00293666    0.102449     -1.0036  5.05897e-05
3490  0.00225098    0.101832   -0.745472  6.32873e-05
3500  0.00167091     0.10131   -0.680808  4.73084e-05
3510  0.00130481     0.10098   -0.810052  2.40594e-05
3520  0.00118973    0.100877   -0.573279  6.02274e-05
3530  0.000100263    0.099896   -0.852874  7.47894e-05
3540  -0.000306062   0.0995302   -0.637691  8.12476e-06
3550  -6.2232e-05   0.0997497   -0.594869  -2.98555e-05
3560  0.000291048    0.100068   -0.788504  1.72551e-05
3570  -0.000407335   0.0994391   -0.379623  5.35846e-05
3580  -0.000780644    0.099103   -0.401107  3.01059e-05
3590  -0.00100945   0.0988971   -0.573426  1.19738e-05
3600  -0.00102012   0.0988875    -1.11122  -2.26743e-05
3610  -0.000555967   0.0993053   -0.702712  -3.36793e-05
3620  -0.000346535   0.0994938    -1.30491  -6.32294e-06
3630  -0.000429508   0.0994191   -0.788483  4.64154e-06
3640  -0.000439365   0.0994103   -0.465982  -2.10694e-05
3650  -8.11938e-06   0.0997985   -0.659827  -3.21444e-05
3660  0.000203522    0.099989   -0.379791  -1.01376e-05
3670  0.000194633    0.099981    -0.25084  4.33634e-05
3680  -0.000663745   0.0992083   -0.207787  1.38398e-05
3690  -8.21622e-05   0.0997318   -0.250924  4.73631e-06
3700  -0.000758471    0.099123   -0.444602  4.36154e-05
