Time   C(t)   
ps   
0           1           1  1.54483e-10   0.0290602
10    0.716827    0.726836    -0.52393   0.0163999
20    0.672002    0.683596    0.679745  0.00373958
30    0.642035    0.654688    -1.46022  0.00287542
40    0.614494     0.62812     1.17874  0.00249808
50    0.592074    0.606492    0.321867  0.00208413
60    0.572812    0.587911    0.903235  0.00192812
70    0.553511    0.569292     2.99835  0.00171013
80    0.538609    0.554917     2.06282  0.00144406
90     0.52463    0.541432     0.23612  0.00148864
100    0.508836    0.526196     1.36121  0.00142996
110    0.496031    0.513844     1.78728  0.00125394
120    0.483757    0.502004     3.02913  0.00111311
130    0.473769    0.492369     1.62891  0.00113742
140    0.461009     0.48006     2.44366  0.00110763
150    0.451616    0.470999     1.89849  0.00100416
160    0.440926    0.460687     2.44112  0.000852191
170    0.434572    0.454557     1.00265  0.000688031
180    0.427165    0.447412     2.63152  0.000889741
190    0.416777    0.437392     2.59275  0.000899422
200    0.409177     0.43006     5.03766  0.000734778
210    0.402082    0.423215     3.40621  0.000746357
220     0.39425     0.41566     3.98754  0.000757846
230    0.386925    0.408594     3.71325  0.000705081
240    0.380148    0.402057     3.40223  0.000557388
250    0.375777     0.39784      1.0702  0.000596973
260    0.368209    0.390539    0.797918  0.00070713
270    0.361634    0.384198    0.952689   0.0006156
280    0.355897    0.378663    0.718883  0.000556177
290    0.350511    0.373467     1.45525  0.000610079
300    0.343695    0.366892    0.949769  0.000659949
310    0.337312    0.360735    0.988357  0.000614589
320    0.331403    0.355035     3.47273  0.000642297
330    0.324466    0.348343     2.30704  0.000653739
340    0.318328    0.342422     3.27751  0.000640902
350    0.311648    0.335978     2.69414  0.000568816
360    0.306952    0.331448     4.67383  0.000521097
370    0.301226    0.325925      4.7899  0.000497575
380    0.297001    0.321848     4.01126  0.000502789
390     0.29117    0.316224     3.27266  0.000526302
400    0.286475    0.311694     5.25174  0.000550008
410     0.28017    0.305613     5.29086  0.000499789
420    0.276479    0.302052     4.59039  0.000420837
430    0.271753    0.297494     5.01726  0.000573806
440    0.265003    0.290981     5.28764  0.00055639
450    0.260626    0.286759     4.39408  0.000450529
460    0.255992    0.282289     4.66575  0.000511292
470      0.2504    0.276895     4.82128  0.000394618
480      0.2481    0.274676      3.6165  0.000352219
490    0.243355    0.270099     4.00406  0.000427308
500    0.239554    0.266432     5.13006  0.000469676
510    0.233962    0.261038     7.11063  0.000491346
520    0.229727    0.256952     5.16812  0.000403188
530    0.225898    0.253259     6.21684  0.000268977
540    0.224347    0.251763     4.31258  0.000282161
550    0.220255    0.247815      4.8947  0.000415894
560    0.216029    0.243739     5.63236  0.000333377
570    0.213587    0.241383     5.98091  0.000323746
580    0.209554    0.237493     6.52456  0.000361954
590    0.206348      0.2344     5.35901  0.000239403
600    0.204766    0.232874     6.98921  0.000212777
610    0.202093    0.230295     6.09606  0.000234109
620    0.200084    0.228357     7.49363  0.000219975
630    0.197693    0.226051     7.22097  0.000308638
640    0.193911    0.222403     6.87193  0.00027557
650    0.192182    0.220734     6.83167  0.000139476
660    0.191122    0.219712     6.28753  0.000209326
670    0.187995    0.216696     6.59771  0.000260296
680    0.185916     0.21469     5.97651  0.000305271
690     0.18189    0.210806     5.66632  0.000223371
700    0.181448     0.21038     5.31565  6.32294e-05
710    0.180625    0.209586      5.8585  0.000192551
720    0.177597    0.206666     6.28616  0.000286157
730    0.174902    0.204066      6.4796  0.000223117
740    0.173135    0.202361     6.59627  0.000147138
750    0.171959    0.201227      5.0801  0.000211303
760    0.168909    0.198284     5.62398  0.000264915
770    0.166661    0.196116     5.07994  0.00017172
780    0.165475    0.194971     6.24397  0.000170018
790    0.163261    0.192836     5.27368  0.000213064
800    0.161213    0.190861     4.41886  0.000232774
810    0.158605    0.188345     3.87532  0.000276091
820    0.155691    0.185534     5.97283  0.000173779
830     0.15513    0.184992     5.38899  0.000232229
840    0.151047    0.181054     5.27372  0.000247583
850    0.150178    0.180215     6.01024  8.91462e-05
860    0.149264    0.179334     5.46564  0.000151779
870    0.147142    0.177287     5.03897  0.000193001
880    0.145404     0.17561     6.20379  0.000212879
890    0.142885     0.17318     5.69831  0.000163605
900    0.142132    0.172454     4.61059  0.000192172
910    0.139041    0.169472     4.92138  0.000168657
920    0.138759      0.1692     4.49422  6.29872e-05
930    0.137782    0.168257     4.95982  8.91283e-05
940    0.136976     0.16748     4.02619  0.000108875
950    0.135604    0.166157     4.29877  0.000148226
960    0.134012     0.16462      3.3275  0.000244323
970    0.130718    0.161443      3.7552  0.000188114
980    0.130249    0.160991     3.79322  0.000116695
990    0.128384    0.159191     3.56002  0.000182398
1000    0.126601    0.157472        4.22  0.000125951
1010    0.125865    0.156761     2.89908  0.000161316
1020    0.123375     0.15436     2.93782  0.000168158
1030    0.122502    0.153517       3.792  0.000153267
1040     0.12031    0.151403     3.71445  0.000155733
1050    0.119387    0.150513     4.45153  0.000105571
1060    0.118198    0.149366     4.99522  0.00016743
1070    0.116038    0.147282     3.94677  8.62192e-05
1080    0.116474    0.147703     3.44084  0.000104206
1090    0.113954    0.145272     2.54799  0.000132981
1100    0.113814    0.145137     2.46941  0.000182065
1110    0.110313    0.141759     2.12018  0.000153509
1120    0.110744    0.142175     1.42047  3.66159e-05
1130    0.109581    0.141053      1.3038  0.000105389
1140    0.108636    0.140142    0.487485  0.000125634
1150    0.107068    0.138629    0.642749  0.000199262
1160    0.104651    0.136298     1.38131  0.00014624
1170    0.104143    0.135808    0.953201  0.000106562
1180     0.10252    0.134242   -0.483142  8.66491e-05
1190     0.10241    0.134136    0.797709  2.88576e-05
1200    0.101943    0.133685    0.603705  4.68001e-05
1210    0.101474    0.133233     1.45713  0.000129748
1220   0.0993477    0.131182     1.41858  0.00012546
1230   0.0989649    0.130812     2.07837  3.38424e-05
1240   0.0986709    0.130529      1.4569  6.76274e-05
1250   0.0976124    0.129508     2.03929  7.2227e-05
1260   0.0972263    0.129135     2.27177  9.04493e-05
1270   0.0958034    0.127763     2.23265  0.000124414
1280   0.0947381    0.126735     1.88342  0.000111174
1290   0.0935799    0.125618     1.92148  8.88396e-05
1300   0.0929613    0.125021     1.95969  0.000129788
1310   0.0909842    0.123114     1.02795  0.00016171
1320   0.0897271    0.121901    0.678948  8.27756e-05
1330   0.0893286    0.121517     1.53328  -5.51529e-06
1340   0.0898374    0.122007     1.45477  3.54294e-05
1350   0.0886201    0.120833    0.949749  0.00012187
1360      0.0874    0.119656     2.19239  0.000140375
1370   0.0858126    0.118125     2.30926  0.000172603
1380   0.0839479    0.116326     1.18333  0.000211803
1390   0.0815765    0.114039    0.562044  0.000123125
1400   0.0814854    0.113951     1.10543  5.25959e-05
1410   0.0805246    0.113024     1.33848  9.61993e-05
1420   0.0795614    0.112095     2.03705  0.000101018
1430   0.0785042    0.111075     1.57134  0.000137987
1440   0.0768017    0.109432    0.833339  5.78061e-05
1450   0.0773481     0.10996    0.716095  8.10917e-05
1460   0.0751798    0.107868    0.560869  0.000150255
1470    0.074343    0.107061     1.06536  1.22532e-05
1480   0.0749348    0.107632     1.22025  8.62814e-05
1490   0.0726174    0.105396     1.33708  0.000185758
1500   0.0712196    0.104048     1.06521  4.27004e-05
1510   0.0717634    0.104572    0.831102  1.1906e-06
1520   0.0711958    0.104025     1.14171  0.000158937
1530   0.0685846    0.101506  -0.0620829  0.000147577
1540   0.0682442    0.101178    0.326304  6.66443e-05
1550   0.0672517     0.10022   -0.334364  9.23805e-05
1560   0.0663966   0.0993952     0.13139  0.000155567
1570   0.0641404   0.0972188     1.18014  0.000141846
1580   0.0635597   0.0966586     1.25781  6.0473e-05
1590   0.0629309    0.096052     1.17976  3.25333e-05
1600   0.0629091   0.0960309    0.674245  8.65366e-05
1610   0.0612002   0.0943825     1.60647  0.000161705
1620    0.059675   0.0929111     1.60678  4.4677e-05
1630   0.0603067   0.0935205     2.49909  3.55061e-05
1640   0.0589648   0.0922261     1.99475  6.37222e-05
1650   0.0590322   0.0922911     1.80029  -1.14642e-05
1660   0.0591941   0.0924473     2.11063  8.29026e-05
1670   0.0573742   0.0906917     2.84858  0.000104252
1680   0.0571091   0.0904359     2.57676  5.14649e-07
1690   0.0573639   0.0906817     1.95517  1.71224e-05
1700   0.0567666   0.0901056      2.3436  2.66012e-05
1710   0.0568319   0.0901685     1.95464  4.09465e-05
1720   0.0559477   0.0893156     2.73157  3.86117e-05
1730   0.0560596   0.0894236     3.04229  1.73479e-05
1740   0.0556007   0.0889809     2.88664  8.6455e-05
1750   0.0543305   0.0877556     2.57592  7.94593e-05
1760   0.0540115   0.0874479     2.14891  1.04422e-05
1770   0.0541217   0.0875541     3.54629  -8.63578e-06
1780   0.0541843   0.0876145     2.65287  4.16178e-05
1790   0.0532893   0.0867512     2.76925  6.56338e-05
1800   0.0528716   0.0863482     2.53605  3.22212e-05
1810   0.0526449   0.0861296     3.35137  5.15372e-05
1820   0.0518408   0.0853539     3.19596  5.16294e-05
1830   0.0516123   0.0851335     3.11863  4.69744e-05
1840   0.0509014   0.0844476     3.66205  6.87635e-05
1850    0.050237   0.0838068     3.27329  9.30848e-05
1860   0.0490397   0.0826517     3.46782  0.000102957
1870   0.0481779   0.0818205     2.03087  4.02834e-05
1880    0.048234   0.0818746     3.07902  3.80145e-05
1890   0.0474176    0.081087     3.19562  0.000108436
1900   0.0460653   0.0797825     2.49643  6.25074e-05
1910   0.0461675   0.0798811     2.96219  3.11207e-05
1920   0.0454428   0.0791821     3.23386  0.000118835
1930   0.0437908   0.0775884     3.85515  7.76157e-05
1940   0.0438905   0.0776846     3.31161  -7.55023e-06
1950   0.0439418    0.077734     2.02958  3.15458e-05
1960   0.0432596    0.077076     2.61201  2.91329e-05
1970   0.0433591    0.077172     2.37881  1.45493e-05
1980   0.0429686   0.0767953     2.26221  9.64534e-06
1990   0.0431662   0.0769859     3.23318  4.16474e-05
2000   0.0421357   0.0759918     3.50516  5.39768e-05
2010   0.0420867   0.0759445     3.34955  -7.40495e-06
2020   0.0422838   0.0761347     3.34948  -1.23419e-05
2030   0.0423335   0.0761826     2.80601  7.37179e-06
2040   0.0421363   0.0759924     2.49492  -1.73545e-05
2050   0.0426806   0.0765174     3.07761  -1.24002e-05
2060   0.0423844   0.0762317     2.61171  1.47883e-05
2070   0.0423848   0.0762321     2.80628  4.46264e-05
2080   0.0414918   0.0753707     3.42768  8.94135e-05
2090   0.0405965   0.0745071      3.3497  5.97838e-05
2100   0.0402961   0.0742173     2.72823  2.50889e-05
2110   0.0400948    0.074023     2.92224  4.76098e-05
2120    0.039344   0.0732987     2.84468  6.01852e-05
2130   0.0388911   0.0728619      2.7669  1.53394e-05
2140   0.0390372   0.0730028     2.88304  7.9101e-06
2150   0.0387329   0.0727093     3.07727  5.55359e-05
2160   0.0379264   0.0719313     3.66016   2.803e-05
2170   0.0381723   0.0721685     3.23261  -4.50593e-06
2180   0.0380166   0.0720183     3.73748  -1.96481e-05
2190   0.0385652   0.0725475     3.50425  8.06879e-06
2200   0.0378552   0.0718626     3.19372  6.85727e-05
2210   0.0371938   0.0712246     3.46554  3.84314e-05
2220   0.0370866   0.0711211     3.19349  2.3387e-05
2230    0.036726   0.0707734     3.50406  5.12954e-05
2240   0.0360607   0.0701315      4.0869  5.39426e-05
2250   0.0356472   0.0697326     3.15452  0.000107431
2260    0.033912   0.0680588     2.84419  5.42236e-05
2270   0.0345627   0.0686865     2.84381  5.96121e-05
2280   0.0327198   0.0669087     2.41653  0.000136089
2290   0.0318409   0.0660609     2.30031  0.000105871
2300   0.0306024   0.0648661     2.53328  8.9895e-06
2310   0.0316611   0.0658875     2.22203  -2.92329e-05
2320    0.031187   0.0654301     2.99881  4.7476e-05
2330   0.0307116   0.0649715     2.72698  6.55666e-05
2340   0.0298757   0.0641652     2.06669  0.000101689
2350   0.0286778   0.0630096     1.91162  -9.89065e-07
2360   0.0298955   0.0641842     2.26077  -1.37128e-05
2370   0.0289521   0.0632742     2.06669  3.77042e-05
2380   0.0291414   0.0634568     2.22184  1.20438e-05
2390   0.0287112   0.0630418     2.22199  4.8246e-05
2400   0.0281765    0.062526     1.32873  8.98062e-05
2410   0.0269151   0.0613092     1.56189  3.55354e-05
2420   0.0274658   0.0618404     1.79479  4.35374e-05
2430   0.0260444   0.0604692      1.4451  4.35241e-05
2440   0.0265953   0.0610007    0.784549  -5.69811e-06
2450   0.0261583   0.0605792    0.823631  -1.36007e-05
2460   0.0268673   0.0612631     1.25034  3.0819e-05
2470   0.0255419   0.0599846    0.784473  5.95186e-05
2480   0.0256769   0.0601148     1.36656  4.80441e-06
2490   0.0254458   0.0598919     1.13386  3.10046e-05
2500   0.0250568   0.0595166     1.67743  6.25722e-05
2510   0.0241944   0.0586847     1.09474  3.90554e-05
2520   0.0242757   0.0587631    0.900352  7.34318e-05
2530   0.0227258   0.0572679      1.7161  8.66938e-05
2540   0.0225419   0.0570905     1.52202  1.57779e-05
2550   0.0224102   0.0569635     1.48309  1.58254e-05
2560   0.0222253   0.0567852      1.4832  5.02571e-05
2570   0.0214051   0.0559939      1.7938  6.88932e-05
2580   0.0208475    0.055456     1.75502  2.93054e-05
2590    0.020819   0.0554285     1.59927  5.06707e-05
2600   0.0198341   0.0544784     1.75487  5.34045e-05
2610   0.0197509   0.0543982     1.75487  4.02933e-05
2620   0.0190282   0.0537011     1.75465  5.9028e-05
2630   0.0185703   0.0532594     2.29868  2.44851e-05
2640   0.0185385   0.0532287     2.10444  3.18736e-06
2650   0.0185066   0.0531979     1.94903  2.46198e-05
2660   0.0180461   0.0527537     1.83262  5.88531e-06
2670   0.0183889   0.0530843     1.71572  3.28094e-05
2680   0.0173899   0.0521207      2.1041  3.2807e-05
2690   0.0177327   0.0524514     1.83247  -4.50982e-05
2700   0.0182919   0.0529908     2.25914  -3.17262e-05
2710   0.0183672   0.0530635     2.06479  -4.26495e-05
2720   0.0191449   0.0538136     2.14239  2.21758e-05
2730   0.0179237   0.0526356     1.94838  2.21001e-05
2740   0.0187029   0.0533872     1.75392  -2.37937e-05
2750   0.0183996   0.0530947     1.87071  -1.30735e-05
2760   0.0189643   0.0536395     1.75411  -3.48022e-05
2770   0.0190956   0.0537661     1.83171  4.13049e-05
2780   0.0181382   0.0528426      2.1038  4.9524e-05
2790   0.0181052   0.0528106     1.67663  -7.60853e-06
2800   0.0182904   0.0529893     1.83163  3.32249e-06
2810   0.0180387   0.0527465     1.94808  2.7941e-05
2820   0.0177316   0.0524503     1.44328  1.43056e-05
2830   0.0177526   0.0524705     1.32684  4.73141e-05
2840   0.0167853   0.0515374     1.55988  6.9372e-05
2850   0.0163652   0.0511321     1.48218  1.17896e-05
2860   0.0165495     0.05131     1.79263  1.18653e-05
2870   0.0161279   0.0509032     1.75389  9.09418e-06
2880   0.0163676   0.0511345     1.36512  -7.42236e-06
2890   0.0162763   0.0510464      1.2876  2.85264e-05
2900   0.0157971   0.0505842     0.78288  5.35315e-05
2910   0.0152057   0.0500136    0.977302  3.69921e-06
2920   0.0157231   0.0505128     1.67565  -2.12342e-05
2930   0.0156304   0.0504233    0.704794  5.38378e-05
2940   0.0146464   0.0494741     1.55916  7.34447e-05
2950   0.0141615   0.0490063      1.5987  2.6221e-05
2960   0.0141219   0.0489682     1.01536  2.63264e-05
2970   0.0136349   0.0484984     1.09307  1.79714e-05
2980   0.0137625   0.0486215     1.48149  -1.56229e-06
2990   0.0136662   0.0485286     1.40367  4.89618e-05
3000   0.0127833   0.0476769     1.52042  4.62345e-05
3010   0.0127415   0.0476366     2.41361  5.76926e-05
3020   0.0116294   0.0465638     2.02526  7.18821e-05
3030   0.0113038   0.0462497     2.18045  3.26055e-05
3040   0.0109773   0.0459347      1.9864  1.85565e-05
3050   0.0109327   0.0458917     2.37464  -1.25268e-05
3060   0.0112279   0.0461764     1.98595  1.01546e-05
3070   0.0107296   0.0456958     1.71408  3.56918e-05
3080    0.010514   0.0454878     2.18014  1.59028e-05
3090   0.0104116    0.045389     2.33579  1.02604e-05
3100   0.0103088   0.0452899     2.25815  1.02898e-05
3110   0.0102058   0.0451905     2.18007  1.03189e-05
3120   0.0101024   0.0450908     1.90828  -3.25719e-05
3130   0.0108572   0.0458189     2.14102  -6.69895e-05
3140   0.0114422   0.0463832     1.71393  -3.84995e-05
3150   0.0116272   0.0465617     1.67481  3.89527e-05
3160   0.0106632   0.0456317     1.36444  1.30795e-05
3170   0.0113656   0.0463093     1.75267  -7.3229e-05
3180   0.0121278   0.0470445     2.25751  -7.92124e-05
3190   0.0129499   0.0478376      2.2574  -4.76419e-05
3200   0.0130806   0.0479637     2.02439  1.58578e-05
3210   0.0126327   0.0475316     1.83046  1.00613e-05
3220   0.0128794   0.0477696     1.36459  1.88527e-05
3230   0.0122557   0.0471679     1.51978  -1.02324e-05
3240    0.013084    0.047967     1.67489  -2.76297e-05
3250   0.0128082    0.047701     1.90786  3.05369e-05
3260   0.0124733   0.0473778     1.59726  1.60201e-05
3270   0.0124878   0.0473919     1.09242  -1.31596e-05
3280   0.0127365   0.0476317     1.51951  2.19726e-05
3290   0.0120484    0.046968    0.548923  1.02324e-05
3300   0.0125318   0.0474343     1.05342  -4.84121e-05
3310   0.0130166    0.047902    0.975254  -6.91569e-05
3320    0.013915   0.0487685    0.819952  -4.49875e-06
3330   0.0131066   0.0479888     1.05308  6.91478e-05
3340    0.012532   0.0474345    0.936552  2.50348e-05
3350   0.0126059   0.0475058     1.48017  -1.0365e-05
3360   0.0127393   0.0476344     1.16937  1.62915e-05
3370   0.0122801   0.0471915      1.0917  5.19279e-05
3380   0.0117007   0.0466326     1.13056  3.42324e-05
3390   0.0115954    0.046531    0.975254  -7.32313e-06
3400   0.0118472   0.0467739     0.62572  4.61251e-06
3410   0.0115032    0.046442    0.470305  8.82268e-05
3420   0.0100827   0.0450717    0.392711  4.6527e-05
3430   0.0105726   0.0455444    0.547785  4.86411e-06
3440  0.00998539   0.0449779    0.392711  2.88055e-05
3450  0.00999654   0.0449886    0.159549  -1.01343e-05
3460   0.0101881   0.0451734     0.39237  8.01558e-05
3470  0.00839342   0.0434422    0.936476  4.40707e-05
3480  0.00930666   0.0443231    0.936059  -2.20151e-05
3490  0.00883372   0.0438669    0.625417  3.82935e-05
3500  0.00854079   0.0435843    0.664081  2.32819e-05
3510  0.00836808   0.0434177    0.275808  1.42624e-05
3520  0.00825554   0.0433092    0.858465  -2.82245e-05
3530  0.00893257   0.0439623    0.975216  1.13083e-05
3540  0.00802938    0.043091    0.819762  6.30298e-05
3550  0.00767198   0.0427462    0.780416  6.63194e-05
3560  0.00670299   0.0418115    0.275959  5.4251e-05
3570  0.00658696   0.0416996    0.314586  3.91771e-05
3580  0.00591945   0.0410556    0.275922  -6.74422e-06
3590  0.00672184   0.0418297   -0.112542  -1.89359e-05
3600  0.00629816    0.041421   -0.112542  5.16624e-05
3610  0.00568859   0.0408329   -0.267843  4.25671e-05
3620  0.00544682   0.0405997   -0.617339  2.42142e-05
3630  0.00520431   0.0403658   -0.190363  1.81079e-05
3640  0.00508466   0.0402504   -0.850463  3.0558e-05
3650  0.00459315   0.0397762    -1.00592  6.78313e-05
3660  0.00372804   0.0389417    -1.31644  4.31721e-05
3670  0.00372971   0.0389433    -1.74376  2.4716e-05
3680  0.00323372   0.0384648     -1.3553  6.06359e-06
3690  0.00360844   0.0388263      -1.394  -9.44998e-06
3700  0.00342272   0.0386472    -1.31641  1.23514e-05
3710  0.00336141    0.038588     -1.6659  3.11814e-05
