Time   C(t)   
ps   
0           1           1  -5.06023e-11   0.0334407
10    0.670748    0.902783    0.284261   0.0176921
20    0.646159    0.895523    0.471593  0.00194342
30     0.63188    0.891307    0.129418  0.00154026
40    0.615353    0.886427   0.0986888  0.00129011
50    0.606077    0.883688   -0.476517  0.000931075
60    0.596732    0.880929    0.548855  0.000907072
70    0.587936    0.878332    -0.15045  0.000794977
80    0.580832    0.876234   -0.507959  0.000770715
90    0.572522     0.87378  0.00456018  0.000751463
100    0.565803    0.871797  0.00427165  0.000615373
110    0.560214    0.870147  -0.0579297  0.000741532
120    0.550973    0.867418    0.129175  0.000896466
130    0.542285    0.864853   -0.321446  0.000655872
140    0.537855    0.863545   -0.321795  0.000542691
150    0.531431    0.861648  -0.0575502  0.000470594
160    0.528443    0.860766   0.0197424  0.000388041
170     0.52367    0.859356   0.0661238  0.000810006
180    0.512243    0.855982  -0.0576261  0.000790304
190    0.507864    0.854689    0.283881  0.00048297
200    0.502584     0.85313    0.594311  0.000499705
210     0.49787    0.851738    0.439013  0.000495453
220    0.492675    0.850204   -0.197894  0.000399072
230    0.489889    0.849382   -0.758206  0.000394763
240    0.484779    0.847873    0.205754  0.000514098
250    0.479607    0.846346   0.0813973  0.000475591
260    0.475268    0.845065    -0.22926  0.000352411
270    0.472558    0.844265   -0.229457  0.000281848
280    0.469631      0.8434   -0.291856  0.000435935
290     0.46384     0.84169   0.0498795   0.0003837
300    0.461957    0.841134    0.142901  0.000204392
310    0.459752    0.840483     0.40616  0.000313623
320    0.455684    0.839282    0.639297  0.000473623
330    0.450279    0.837687   -0.370286  0.000453244
340    0.446619    0.836606    0.282152  0.00029714
350    0.444337    0.835932    0.452936  0.000268504
360    0.441249     0.83502    0.250421  0.000301106
370    0.438315    0.834154    0.717014  0.000339098
380    0.434467    0.833018    0.033392  0.000291587
390    0.432483    0.832432    0.048802  0.000324513
400    0.427977    0.831101    0.359611  0.000391978
410    0.424643    0.830117    0.996487   0.0002399
420    0.423179    0.829685    0.110063  0.000305043
430    0.418542    0.828316    0.623325  0.000493678
440    0.413305    0.826769     1.01179  0.000327773
450    0.411987     0.82638   0.0478007  0.000180522
460    0.409695    0.825703    0.140882  0.000339976
470    0.405187    0.824372     0.82455  0.000391917
480    0.401857    0.823389    0.203159  0.000160395
490     0.40198    0.823425    0.140867  0.000279859
500    0.396259    0.821736    0.763016  0.000239556
510    0.397188    0.822011    0.513711  0.000104912
520    0.394161    0.821117    0.995243  0.000224347
530    0.392701    0.820686    0.202613  0.000186808
540    0.390425    0.820014   -0.247902  0.000244239
550    0.387817    0.819243   0.0787875  0.000214848
560    0.386128    0.818745    0.171232  0.000212619
570    0.383564    0.817988  -0.0302962  0.000313956
580    0.379849    0.816891    0.108985  0.000257179
590    0.378421    0.816469    0.248904  0.000227799
600    0.375293    0.815546    0.590958  0.000378765
610    0.370845    0.814232    0.466919  0.000289075
620    0.369511    0.813839    0.699798  4.30688e-05
630    0.369984    0.813978    0.808032  8.7136e-05
640    0.367769    0.813324     1.21173  0.000273995
650    0.364504     0.81236    0.543984  0.00023883
660    0.362992    0.811914    0.807789  4.9378e-05
670    0.363517    0.812069     1.27371  0.000203978
680    0.358913    0.810709    0.823154  0.000309131
690    0.357334    0.810243    0.341652  3.17991e-06
700    0.358849     0.81069  -0.000933239  0.000172031
710    0.353893    0.809227      1.0098  0.000343801
720    0.351973     0.80866    0.931721  6.75157e-05
730    0.352543    0.808828    0.791423  0.000131609
740    0.349341    0.807883    0.853731  0.000209437
750    0.348354    0.807592    0.745224  9.32127e-05
760    0.347477    0.807332     0.57406  0.000202011
770    0.344314    0.806399    0.371834  0.000255322
780     0.34237    0.805825    0.744814  0.00014707
790    0.341373     0.80553   -0.203099  0.000220047
800    0.337969    0.804525   -0.110001  0.000133799
810    0.338697     0.80474    0.185079  8.38459e-05
820    0.336292     0.80403    0.154486  9.5059e-05
830    0.336796    0.804179   -0.390507  0.000109543
840    0.334101    0.803383    -0.28115  0.000272462
850    0.331346     0.80257   -0.172491  0.000236499
860    0.329371    0.801987   -0.219131   0.0001048
870     0.32925    0.801951   -0.157263  0.00016425
880    0.326086    0.801017   -0.219085  0.000198254
890    0.325285     0.80078   -0.063802  0.000164966
900    0.322787    0.800043    0.479765  0.000241627
910    0.320453    0.799353    0.153788  0.000219481
920    0.318397    0.798746    0.573483  0.000234117
930     0.31577    0.797971   -0.483391  0.000211972
940    0.314158    0.797495   -0.530197  0.000215282
950    0.311465    0.796699   0.0913749  8.21099e-05
960    0.312516     0.79701    0.417412  -1.13443e-05
970    0.311692    0.796766    0.339451  0.000159386
980    0.309328    0.796069    0.121997  0.000216694
990    0.307358    0.795487    0.122073  0.00014585
1000    0.306411    0.795207   0.0595078  -5.23776e-06
1010    0.307462    0.795518    0.276643  0.000198022
1020    0.302451    0.794038     -0.3287  0.000427274
1030    0.298917    0.792994   -0.095745  0.00021608
1040    0.298129    0.792762   0.0593713  0.000136341
1050     0.29619    0.792189   -0.561913  0.00014808
1060    0.295167    0.791887   -0.220117  0.00023765
1070    0.291437    0.790786   -0.126747  0.000243786
1080    0.290292    0.790448   -0.219996  0.000166652
1090    0.288104    0.789802   -0.810778  0.000294031
1100    0.284411    0.788711    0.106542  0.000167339
1110    0.284757    0.788814  -0.0339686  0.000147727
1120    0.281457    0.787839    -0.32911  0.000121757
1130    0.282322    0.788095  -0.0964733  0.000186062
1140    0.277735     0.78674     -1.1527  0.000224023
1150    0.277842    0.786772   -0.702211  -2.81408e-05
1160    0.278298    0.786906  -0.0968226  0.000175454
1170    0.274333    0.785736  -0.00348261  0.000280505
1180    0.272688     0.78525    0.182954  0.000182146
1190     0.27069     0.78466   -0.609569  0.00024094
1200    0.267869    0.783827   -0.220663  0.000188796
1210    0.266914    0.783545   -0.438724  0.000242029
1220    0.263029    0.782398  -0.00349779  0.000268757
1230    0.261539    0.781958   -0.749488  0.000131609
1240    0.260397    0.781621    0.136057  0.00012321
1250    0.259074     0.78123   -0.112596  0.000246966
1260    0.255457    0.780162   -0.764913  0.000170811
1270    0.255658    0.780222   -0.827494  3.5882e-05
1280     0.25474     0.77995   -0.516821  0.000145093
1290    0.252756    0.779365   -0.408345  0.000148271
1300    0.251774    0.779075   0.0887344  0.000172325
1310     0.24931    0.778347   -0.859239  0.000208198
1320     0.24761    0.777845   -0.548278  0.000330236
1330    0.242705    0.776397   -0.688015  0.000200213
1340    0.243606    0.776663   -0.750398  0.000114863
1350    0.240408    0.775719   -0.252986  0.000156619
1360    0.240474    0.775738   -0.113704  0.000142206
1370    0.237564    0.774879     -0.7347  0.000169155
1380     0.23709    0.774739   -0.750596  8.61779e-05
1390     0.23584     0.77437   -0.533051  0.000116236
1400    0.234766    0.774053  -0.0669888  0.00019127
1410    0.232015    0.773241    -0.26923  0.000236448
1420    0.230037    0.772657    0.259063  0.000207157
1430    0.227872    0.772017   -0.362221  0.000273703
1440    0.224563     0.77104    0.166148  9.69067e-05
1450    0.225934    0.771445   0.0411689  9.14462e-05
1460    0.222734      0.7705    0.165587  0.000130579
1470    0.223322    0.770674   -0.518171  4.35837e-05
1480    0.221862    0.770243   -0.611329  0.000221732
1490    0.218887    0.769365    0.150071  0.000104234
1500    0.219777    0.769627   -0.782963  0.000162171
1510    0.215644    0.768407   -0.238516  0.000301743
1520    0.213743    0.767845   -0.471744  6.59406e-05
1530    0.214325    0.768017    -0.09878  9.95711e-05
1540    0.211751    0.767257   -0.316765  0.00015134
1550    0.211298    0.767124    0.133705  5.77346e-06
1560    0.211636    0.767223   -0.161831  -1.25155e-05
1570    0.211549    0.767198   -0.162104  9.72502e-05
1580    0.209691    0.766649   -0.348313  8.82767e-05
1590    0.209783    0.766676   0.0864736  5.19104e-05
1600    0.208652    0.766343   -0.115662  0.000241797
1610    0.204947    0.765248    0.257546  0.000401667
1620    0.200619    0.763971     0.52214  0.000181621
1630    0.201315    0.764176    0.708152  -2.36087e-05
1640    0.201091     0.76411    0.303973  5.92984e-05
1650    0.200129    0.763826    0.210572  9.6453e-05
1660    0.199162     0.76354    0.707697  0.000139834
1670    0.197332       0.763   0.0243177  5.98036e-05
1680    0.197966    0.763187    0.210178  0.00016527
1690    0.194027    0.762024    0.614539  0.000208681
1700    0.193793    0.761955    0.381038  6.68488e-05
1710     0.19269    0.761629    0.117293  0.000129044
1720    0.191212    0.761193    0.117035  0.00012001
1730     0.19029    0.760921   -0.224654  3.00683e-05
1740     0.19061    0.761015   -0.100631  0.000148606
1750    0.187317    0.760043    0.396933  0.000102004
1760     0.18857    0.760413    0.365187  3.06733e-05
1770    0.186704    0.759862    0.427358  0.000180571
1780    0.184959    0.759347  -0.0697207  0.000112198
1790     0.18446    0.759199    0.116929  1.23143e-05
1800    0.184713    0.759274   -0.396258  1.23546e-05
1810    0.184213    0.759126  -0.00791341  0.000169408
1820    0.181324    0.758273    0.536321  0.000301863
1830    0.178176    0.757344    0.443087  0.00015133
1840    0.178298     0.75738      -0.381  3.5166e-05
1850    0.177472    0.757136   -0.862304  2.58595e-05
1860    0.177781    0.757227   -0.505523  0.000202999
1870    0.173412    0.755937   -0.380803  0.000190543
1880     0.17397    0.756102  -0.0396894  0.000137401
1890    0.170664    0.755126    -0.28813  0.000318285
1900    0.167604    0.754222   -0.427548  0.000144477
1910    0.167775    0.754273   -0.816166  -1.29193e-06
1920     0.16763     0.75423   -0.816575  7.50646e-05
1930    0.166273    0.753829   -0.505584  0.000158144
1940    0.164467    0.753296   -0.319026  9.78552e-05
1950    0.164316    0.753252   -0.210777  7.26022e-05
1960    0.163015    0.752867   -0.334876  8.54813e-05
1970    0.162607    0.752747   -0.179821  0.000121029
1980    0.160594    0.752153    -0.81656  7.30962e-05
1990    0.161145    0.752315   -0.335377  9.20519e-06
2000     0.16041    0.752098   -0.304193  0.000108918
2010    0.158966    0.751672   -0.677188  0.000257221
2020    0.155266    0.750579   -0.583985  0.000167409
2030    0.155618    0.750683   -0.630639  0.000113238
2040    0.153001    0.749911    -1.26768  5.19209e-05
2050     0.15458    0.750377    -1.00412  1.34744e-05
2060    0.152732    0.749831   -0.584076  -1.58571e-05
2070    0.154897     0.75047   -0.631094  2.97755e-05
2080    0.152136    0.749655   -0.724176  0.000237397
2090    0.150149    0.749068   -0.895037  0.000156761
2100    0.149001    0.748729    -1.06614  -2.30148e-06
2110    0.150195    0.749082    -1.14436  -0.000103286
2120    0.151067    0.749339   -0.616216  4.65915e-05
2130    0.149263    0.748807    -1.14451  0.00017074
2140    0.147652    0.748331   -0.988741  6.31645e-05
2150       0.148    0.748434    -1.25356  6.67781e-05
2160    0.146316    0.747937   -0.989362  0.000142347
2170    0.145153    0.747593    -1.11348  5.06893e-05
2180    0.145302    0.747637   -0.927556  1.46754e-05
2190     0.14486    0.747507    -1.06738  0.000166218
2200    0.141978    0.746656   -0.663083  6.09748e-05
2210     0.14364    0.747147   -0.896508  2.50928e-05
2220    0.141476    0.746508   -0.849884  0.000219996
2230     0.13924    0.745847    -1.40935  0.000167601
2240    0.138124    0.745518    -1.40966  0.000217846
2250    0.134883    0.744561    -1.30055  0.000390948
2260    0.130305    0.743209     -1.4088  2.95028e-05
2270    0.134293    0.744387    -1.47174  -1.32024e-05
2280    0.130569    0.743287     -1.7043  0.000159577
2290    0.131102    0.743444    -1.36255  -2.99163e-05
2300    0.131168    0.743464    -1.37842  -2.66567e-05
2310    0.131635    0.743602    -1.28532  -0.000153874
2320    0.134245    0.744373    -1.45656  0.000167479
2330    0.128285    0.742613    -1.11463  0.000298199
2340    0.128281    0.742612    -1.37897  0.000148262
2350     0.12532    0.741737    -1.25434  0.000111432
2360    0.126052    0.741954    -1.61198  0.000192794
2370    0.121464    0.740599    -1.31658  0.000101893
2380    0.124015    0.741352     -1.8143  -5.95108e-05
2390    0.122654     0.74095    -2.09406  0.00021398
2400    0.119735    0.740088     -2.0475  0.000190765
2410    0.118839    0.739824    -1.87659  0.00016431
2420    0.116449    0.739118    -2.48292  0.000171376
2430    0.115411    0.738812    -1.28622  -1.16073e-05
2440    0.116681    0.739187    -1.72151  0.000155327
2450    0.112305    0.737894    -1.64356  0.000233672
2460    0.112008    0.737807    -1.47306  5.98542e-06
2470    0.112185    0.737859    -2.21907  3.68107e-05
2480    0.111271    0.737589    -1.67543  0.000135968
2490    0.109466    0.737056    -2.18767  3.00884e-05
2500     0.11067    0.737412    -2.63883  6.12669e-05
2510     0.10824    0.736694    -1.61345  0.000263912
2520    0.105391    0.735853    -1.79966  9.25563e-05
2530    0.106389    0.736148    -1.73784  -5.8572e-05
2540    0.106563    0.736199    -2.18878  0.000151704
2550    0.103355    0.735252     -1.7846  0.000217503
2560    0.102213    0.734915    -1.47369  5.90868e-05
2570    0.102174    0.734903    -2.28168  -6.41942e-06
2580    0.102341    0.734952    -2.34408  9.41716e-05
2590     0.10029    0.734347    -2.11091  5.94702e-05
2600    0.101152    0.734601    -1.58282  -9.72003e-06
2610    0.100484    0.734404    -1.83173  0.000150392
2620   0.0981438    0.733713    -1.86259  1.81582e-05
2630    0.100121    0.734297    -1.55218  4.50164e-06
2640   0.0980538    0.733687    -1.66084  0.000186102
2650   0.0963993    0.733198    -1.67655  2.90893e-05
2660    0.097472    0.733515    -1.69219  0.000130992
2670   0.0937794    0.732424    -1.80101  0.000362697
2680   0.0902181    0.731373    -1.38138  6.13883e-05
2690   0.0925517    0.732062    -1.73896  9.01442e-05
2700   0.0884152    0.730841    -1.98725  6.87864e-05
2710   0.0911759    0.731656    -1.56829  3.41356e-05
2720   0.0877325    0.730639    -1.21043  0.000295383
2730   0.0852683    0.729911    -1.56776  0.000115792
2740   0.0854166    0.729955    -1.45919  3.47618e-05
2750    0.084573    0.729706    -1.35056  8.44415e-05
2760   0.0837278    0.729457     -1.6767  5.26573e-05
2770   0.0835199    0.729395    -1.53703  0.000138289
2780    0.080962     0.72864    -1.53677  0.000131406
2790   0.0808918    0.728619     -1.1952  -2.15091e-05
2800   0.0813922    0.728767     -1.3506  0.000149998
2810   0.0778918    0.727733     -1.5835  3.20062e-05
2820   0.0807521    0.728578    -1.49086  2.54255e-05
2830   0.0773833    0.727583    -1.64585  0.000172194
2840   0.0773082    0.727561    -1.95707  -3.27043e-06
2850   0.0774487    0.727603    -1.44432  5.79461e-05
2860   0.0761493    0.727219    -1.47543  0.000195025
2870   0.0735482    0.726451    -1.80151  0.000253193
2880   0.0710854    0.725724    -1.10222  0.000163584
2890   0.0702765    0.725485   -0.946896  0.000135252
2900   0.0683804    0.724925    -0.79178  0.000102872
2910   0.0682191    0.724877    -1.22692  8.51076e-05
2920   0.0666782    0.724422   -0.993869  0.000143377
2930   0.0653516    0.724031   -0.620844  0.000136554
2940   0.0639472    0.723616    -1.21154  -3.07042e-05
2950   0.0659656    0.724212   -0.745702  2.78272e-05
2960   0.0633906    0.723452    -1.28927  0.000100682
2970    0.063952    0.723617   -0.807933  -2.68281e-05
2980   0.0639272     0.72361   -0.994598  0.000163655
2990   0.0606789    0.722651   -0.947548  9.77142e-05
3000   0.0619729    0.723033   -0.885788  3.95561e-05
3010   0.0598878    0.722417    -1.10317  9.83199e-05
3020   0.0600065    0.722453     -1.3362  -8.55921e-05
3030   0.0615996    0.722923    -1.52319  -2.66567e-05
3040   0.0605396     0.72261    -1.10358  5.44338e-05
3050    0.060511    0.722601    -1.04137  5.83801e-05
3060    0.059372    0.722265    -1.89637  0.000136311
3070   0.0577847    0.721797   -0.870574  0.000151522
3080   0.0563416     0.72137    -1.53839  0.000148222
3090   0.0548203    0.720921    -1.56967  0.000148676
3100   0.0533681    0.720492    -1.44533  7.82944e-05
3110   0.0532544    0.720459    -2.00502  7.48629e-05
3120   0.0518708     0.72005    -1.56979  4.49965e-05
3130   0.0523545    0.720193    -1.58561  3.03408e-05
3140    0.051264    0.719871    -1.83443  0.000199173
3150    0.048371    0.719017    -1.81859  0.000120646
3160   0.0488511    0.719159    -1.46149  4.23115e-05
3170   0.0475248    0.718767    -1.53951  5.73508e-05
3180   0.0477041     0.71882    -1.02659  0.000223569
3190   0.0430534    0.717447    -1.38331  0.000246622
3200   0.0427716    0.717364    -1.38369  -0.00012321
3210   0.0455176    0.718174    -1.47754  2.82412e-05
3220   0.0422068    0.717197    -1.16652  0.000240485
3230   0.0407079    0.716754    -1.29068  5.88244e-05
3240   0.0410303     0.71685    -1.52427  7.81231e-05
3250   0.0391455    0.716293    -1.01145  7.06539e-05
3260   0.0396172    0.716432    -1.47772  7.10171e-05
3270   0.0377251    0.715874   -0.887168   0.0001513
3280   0.0365912    0.715539    -1.10467  0.000102095
3290   0.0356832    0.715271   -0.622998  0.000148383
3300   0.0336236    0.714663    -0.91814  0.000194863
3310   0.0317859     0.71412    -1.04263  -3.15115e-05
3320   0.0342538    0.714849    -1.36911  -0.000150735
3330   0.0348006     0.71501    -1.94433  6.08733e-05
3340   0.0330363    0.714489    -1.49356  0.000134323
3350   0.0321142    0.714217    -1.88199  1.87434e-05
3360   0.0326614    0.714378    -1.74217  6.5375e-05
3370   0.0308067    0.713831    -1.88196  0.000150806
3380   0.0296453    0.713488    -1.74244  0.000127954
3390   0.0282476    0.713075    -1.83531  5.82491e-05
3400   0.0284804    0.713144     -1.6179  -3.78499e-06
3410   0.0283233    0.713098    -1.71109  5.85922e-05
3420   0.0273085    0.712798    -2.16191  0.000109503
3430   0.0261332    0.712451    -1.81993  5.50998e-05
3440   0.0262065    0.712473    -1.91321  1.21929e-05
3450   0.0258894    0.712379    -1.60276  3.96671e-05
3460   0.0254132    0.712238    -1.63392  -3.89101e-05
3470   0.0266676    0.712609    -2.06922  5.17489e-05
3480   0.0243782    0.711933    -2.22418  0.000272693
3490   0.0212137    0.710998    -1.32305  0.000174596
3500   0.0208863    0.710902    -1.82029  5.65635e-05
3510   0.0200824    0.710664    -1.57178  0.000151886
3520   0.0178486    0.710005    -1.66512   5.296e-05
3530   0.0190232    0.710352    -1.86705  1.36361e-05
3540   0.0175758    0.709924    -1.86724  0.000129004
3550   0.0164432     0.70959    -1.60316  3.36211e-05
3560   0.0169034    0.709726    -1.72756  -3.40753e-05
3570   0.0171247    0.709791    -1.88304  0.000197952
3580   0.0129444    0.708557    -1.55664  0.000198285
3590    0.013159     0.70862    -1.55661  6.67376e-05
3600   0.0116096    0.708163    -1.50989  0.000175312
3610  0.00965273    0.707585      -1.137  -9.40706e-06
3620   0.0117978    0.708218    -1.41693  4.3331e-05
3630  0.00878611    0.707329     -1.4792  0.000200657
3640  0.00778464    0.707033    -1.35463  3.55086e-05
3650  0.00807593    0.707119    -1.23066  -7.77596e-05
3660  0.00933983    0.707492    -1.41743  0.000141287
3670  0.00525019    0.706285    -1.19963  0.000279547
3680  0.00374889    0.705842    -1.58829  -3.53274e-07
3690  0.00525725    0.706287    -1.55729  -4.9064e-05
3700  0.00473017    0.706131    -1.44872  5.27784e-05
3710  0.00420168    0.705975    -1.77502  0.000151139
3720   0.0017074    0.705239    -1.68154  0.000200627
3730  0.00018915    0.704791     -1.3707  8.22612e-05
3740  6.21754e-05    0.704753    -1.01357  0.00017722
3750  -0.00335525    0.703744    -1.52631  0.000247571
3760  -0.00488925    0.703291    -1.27759  -7.20669e-06
3770  -0.00321112    0.703787    -1.41778  -9.37375e-05
3780  -0.0030145    0.703845    -1.01392  0.000133384
3790  -0.0058788    0.702999    -1.02903  0.000233097
3800  -0.00767644    0.702468   -0.904779  5.95713e-05
3810  -0.00707023    0.702647    -1.09176  4.32805e-05
3820  -0.00854205    0.702213    -1.15372  7.6619e-05
3830  -0.00860261    0.702195    -1.27814  -2.72925e-05
3840  -0.0079962    0.702374    -1.23186  0.000123059
3850  -0.0110638    0.701468    -1.23148  0.000131547
3860  -0.0106271    0.701597    -1.18524  3.16226e-05
3870  -0.0116962    0.701281    -1.34049  -4.8196e-05
3880  -0.00966322    0.701881    -1.57411  -3.54178e-05
3890  -0.0109879     0.70149   -0.812683  0.000191643
3900  -0.0134961     0.70075   -0.952344  9.92989e-05
3910  -0.0129739    0.700904    -1.27862  -2.26798e-05
3920  -0.0130425    0.700884    -1.24767  0.000112753
3930  -0.0152289    0.700238   -0.703994  0.000168085
3940  -0.0164042    0.699891    -1.44989  3.02806e-06
3950  -0.0152895     0.70022     -1.5432  3.72346e-05
3960  -0.0171489    0.699671    -1.37262   0.0001394
3970  -0.0180775    0.699397    -1.40324  5.88345e-05
3980  -0.0183256    0.699324    -1.26358  -8.63087e-05
3990  -0.0163513    0.699907    -1.48159  8.4946e-05
4000  -0.0200245    0.698822    -1.03067  0.000324998
4010  -0.0228513    0.697987    -1.65197  6.3972e-05
4020  -0.0213039    0.698444     -1.7919  -8.5895e-06
4030  -0.0226795    0.698038    -1.72999  -6.91801e-05
4040  -0.0199203    0.698853    -1.99458  4.35021e-06
4050  -0.0227665    0.698013    -2.32083  0.000198527
4060  -0.0238909    0.697681    -1.87016  0.000138643
4070  -0.0255393    0.697194    -1.68388  7.83652e-05
4080  -0.0254582    0.697218     -1.6527  3.96166e-05
4090  -0.0263317     0.69696    -1.65279  1.78955e-05
4100  -0.0258161    0.697112    -1.38856  0.000205673
4110  -0.0304451    0.695745    -1.41951  0.000197175
4120  -0.0297596    0.695948    -1.48188  -1.18093e-05
4130   -0.030209    0.695815    -1.49743  4.94274e-05
4140  -0.0307481    0.695656     -1.7769  9.35153e-05
4150  -0.0320793    0.695263     -1.9013  -3.3813e-05
4160  -0.0300719    0.695855     -2.1192  -2.77571e-06
4170  -0.0320237    0.695279    -1.71494  -1.64017e-05
4180  -0.0297439    0.695952    -1.59096  9.44743e-05
4190  -0.0339132    0.694721    -1.65276  0.000200627
4200  -0.0337564    0.694768    -1.68427  -4.24629e-05
4210   -0.033064    0.694972    -1.38916  -2.92508e-05
4220  -0.0331714     0.69494    -1.57584  9.53827e-05
4230  -0.0349716    0.694409    -1.31154  0.000131204
4240  -0.0357955    0.694166    -1.91785  9.59983e-05
4250  -0.0368916    0.693842    -1.28079  0.000257453
4260  -0.0409445    0.692645    -1.56028  0.000253577
4270  -0.0419631    0.692344   -0.938755  2.11658e-05
4280  -0.0413678     0.69252    -1.00111  -2.36185e-05
4290  -0.0414908    0.692484    -1.34283  -3.27935e-05
4300  -0.0407119    0.692714    -1.23437  7.55491e-05
4310  -0.0430017    0.692038    -1.48287  7.10677e-05
4320  -0.0421333    0.692294    -1.28114  0.000139541
4330  -0.0457926    0.691214    -1.18782  0.000175958
4340  -0.0456525    0.691255    -1.18764  9.50698e-05
4350   -0.047694    0.690652   -0.954574  9.06186e-05
4360  -0.0474648     0.69072    -1.43641  -1.11014e-07
4370  -0.0476917    0.690653    -1.14169  8.67326e-05
4380  -0.0491995    0.690208    -1.24991  4.56827e-05
4390  -0.0486054    0.690383    -1.53033  0.000114853
4400  -0.0514966     0.68953    -1.39023  0.000344791
4410  -0.0555012    0.688347    -1.31228  0.000198588
4420  -0.0554683    0.688357    -1.37474  0.000116639
4430   -0.057834    0.687658    -1.01725  0.000218492
4440  -0.0598381    0.687067    -1.73181  -9.0871e-05
4450  -0.0560166    0.688195    -1.37497  -2.11356e-05
4460  -0.0594154    0.687191    -1.82518  9.89458e-05
4470  -0.0579955    0.687611    -1.34389  -7.24604e-05
4480  -0.0579662    0.687619    -1.32836  0.000146294
4490  -0.0609214    0.686747    -1.62382  0.000211992
4500  -0.0622061    0.686367    -1.98118  -7.26121e-05
4510  -0.0594691    0.687176    -1.93479  -4.43807e-05
4520  -0.0613184    0.686629     -1.2512  0.00024632
4530  -0.0643955    0.685721    -1.51519  4.47238e-05
4540  -0.0622129    0.686365     -1.7332  3.5983e-05
4550  -0.0651152    0.685508    -1.90397  0.000191492
4560  -0.0660428    0.685235    -1.62436  0.000135534
4570  -0.0678259    0.684708    -1.79538  4.59149e-05
4580  -0.0669611    0.684963    -1.60889  0.000108121
4590  -0.0699883     0.68407    -1.82642  0.000184295
4600   -0.070647    0.683875    -1.74889  2.78778e-05
4610  -0.0705458    0.683905    -1.79568  0.000147414
4620  -0.0735952    0.683005    -1.53127  0.000142852
4630  -0.0734029    0.683061    -1.08124  0.000220491
4640  -0.0780051    0.681702    -1.43811  0.000196842
4650  -0.0773397    0.681899    -1.85765  -0.000158123
4660  -0.0748426    0.682636    -1.53153  -2.35379e-05
4670  -0.0768689    0.682038    -1.71816  0.000106415
4680  -0.0769709    0.682008    -1.62455   0.0001264
4690  -0.0793969    0.681292     -1.5935  0.000121777
4700  -0.0794064    0.681289     -2.0288  -2.3336e-05
4710  -0.0789302    0.681429    -2.13763  0.000151906
4720  -0.0824445    0.680392    -1.82682  0.00024965
4730  -0.0839232    0.679955    -2.05991  0.000221409
4740  -0.0868727    0.679084    -2.30841  0.000192754
4750  -0.0877783    0.678817    -2.33952  8.08988e-05
4760  -0.0884907    0.678606     -2.1843  0.00011561
4770  -0.0900905    0.678134    -2.33955  0.000179965
4780    -0.09209    0.677544    -2.15334  -6.10147e-05
4790  -0.0888702    0.678494    -2.32455  5.78452e-05
4800  -0.0932469    0.677202    -1.88923  0.000265234
4810  -0.0941749    0.676928    -1.70296  0.000127732
4820  -0.0958015    0.676448    -2.10682  0.000113228
4830  -0.0964395    0.676259    -2.04499  0.000327905
4840    -0.10236    0.674511    -1.56294  0.000313713
4850   -0.102714    0.674407    -2.23113  0.000200455
4860   -0.106369    0.673328    -1.78032  5.06487e-05
4870   -0.103727    0.674108    -1.85855  8.16051e-05
4880   -0.108001    0.672846    -2.13795  0.000232098
4890   -0.108369    0.672737    -2.12254  -9.41411e-05
4900   -0.106118    0.673402    -2.15395  0.000375273
4910   -0.115874    0.670521    -1.71795  5.18396e-05
4920   -0.107155    0.673096     -2.0142  -0.000285714
4930    -0.11016    0.672208    -2.16949  0.000392502
4940   -0.115005    0.670778    -2.02959  0.000322656
4950   -0.116613    0.670303    -1.95189  5.91174e-05
4960   -0.116187    0.670429    -1.68752  3.39441e-05
4970   -0.117292    0.670102    -1.65644  7.4913e-05
4980   -0.117685    0.669986    -1.79659  6.51024e-05
4990   -0.118594    0.669718     -1.8901  5.52919e-05
