Time   Number   
ps   
0          69          43
10          59          46
20          64          43
30          64          38
40          64          42
50          68          43
60          70          42
70          66          41
80          66          44
90          68          43
100          68          48
110          69          43
120          68          45
130          72          46
140          68          40
150          65          44
160          67          44
170          64          51
180          67          47
190          66          48
200          69          42
210          64          49
220          73          39
230          67          52
240          70          43
250          68          39
260          71          43
270          68          46
280          64          47
290          69          47
300          70          38
310          69          39
320          71          41
330          71          38
340          67          46
350          66          44
360          70          48
370          68          46
380          70          48
390          72          49
400          71          41
410          69          53
420          69          44
430          68          48
440          59          51
450          66          41
460          69          41
470          60          50
480          64          51
490          66          48
500          62          48
510          67          41
520          63          52
530          67          41
540          66          38
550          67          49
560          68          48
570          70          43
580          63          43
590          67          47
600          66          49
610          66          44
620          69          50
630          64          51
640          70          55
650          72          47
660          71          45
670          66          49
680          71          47
690          70          43
700          69          42
710          70          38
720          70          44
730          66          47
740          70          44
750          68          44
760          68          48
770          70          50
780          70          43
790          69          46
800          69          42
810          70          50
820          70          44
830          65          48
840          67          40
850          68          43
860          67          46
870          68          44
880          71          47
890          69          47
900          67          44
910          68          47
920          71          49
930          72          42
940          65          43
950          63          50
960          64          54
970          64          44
980          67          44
990          66          44
1000          63          51
1010          64          44
1020          66          38
1030          71          40
1040          67          42
1050          67          53
1060          67          42
1070          72          44
1080          66          43
1090          71          48
1100          69          45
1110          66          44
1120          69          48
1130          69          50
1140          64          51
1150          72          43
1160          68          50
1170          70          48
1180          72          49
1190          67          49
1200          68          48
1210          73          41
1220          67          46
1230          69          53
1240          68          43
1250          60          50
1260          66          50
1270          71          44
1280          73          43
1290          67          52
1300          66          43
1310          64          50
1320          67          54
1330          70          48
1340          73          50
1350          63          55
1360          71          46
1370          63          60
1380          70          53
1390          71          55
1400          72          51
1410          72          46
1420          70          50
1430          72          49
1440          72          53
1450          72          48
1460          72          43
1470          69          42
1480          70          51
1490          68          47
1500          67          48
1510          72          48
1520          69          55
1530          70          51
1540          73          51
1550          72          49
1560          70          44
1570          68          46
1580          62          50
1590          66          51
1600          66          43
1610          63          50
1620          66          45
1630          68          49
1640          69          43
1650          68          44
1660          68          43
1670          66          48
1680          69          44
1690          71          41
1700          72          46
1710          70          45
1720          66          47
1730          66          49
1740          65          43
1750          64          42
1760          63          44
1770          66          41
1780          67          46
1790          65          41
1800          68          46
1810          72          40
1820          70          37
1830          70          45
1840          70          41
1850          68          43
1860          71          46
1870          72          45
1880          65          46
1890          67          51
1900          70          50
1910          71          41
1920          65          45
1930          65          48
1940          66          48
1950          69          42
1960          65          52
1970          65          45
1980          67          42
1990          67          46
2000          69          43
2010          73          42
2020          69          46
2030          67          47
2040          67          44
2050          66          45
2060          66          47
2070          68          50
2080          67          46
2090          71          43
2100          71          42
2110          69          46
2120          70          41
2130          70          45
2140          71          44
2150          64          48
2160          69          47
2170          67          48
2180          69          43
2190          70          41
2200          67          48
2210          71          40
2220          72          46
2230          65          42
2240          65          45
2250          71          44
2260          63          45
2270          70          40
2280          62          36
2290          65          47
2300          66          47
2310          65          46
2320          66          43
2330          69          44
2340          70          48
2350          67          43
2360          67          43
2370          66          49
2380          66          44
2390          66          50
2400          69          50
2410          67          48
2420          73          47
2430          67          49
2440          66          47
2450          63          45
2460          71          43
2470          67          43
2480          69          43
2490          70          42
2500          67          49
2510          65          46
2520          68          43
2530          69          41
2540          70          42
2550          64          44
2560          67          43
2570          67          46
2580          66          40
2590          67          41
2600          69          40
2610          65          41
2620          66          49
2630          66          40
2640          70          44
2650          67          41
2660          60          45
2670          66          48
2680          66          49
2690          66          48
2700          67          42
2710          71          44
2720          65          44
2730          69          44
2740          67          49
2750          65          42
2760          69          39
2770          75          48
2780          69          49
2790          68          48
2800          67          42
2810          64          48
2820          64          47
2830          68          47
2840          71          44
2850          68          45
2860          71          45
2870          71          46
2880          66          47
2890          70          47
2900          71          45
2910          72          45
2920          67          48
2930          68          44
2940          70          43
2950          68          45
2960          63          48
2970          65          48
2980          72          41
2990          71          42
3000          66          47
3010          64          44
3020          62          48
3030          65          46
3040          66          41
3050          67          43
3060          69          44
3070          67          41
3080          70          42
3090          70          48
3100          67          49
3110          68          49
3120          71          43
3130          65          45
3140          66          40
3150          60          48
3160          67          42
3170          67          46
3180          73          48
3190          66          41
3200          68          46
3210          65          43
3220          68          44
3230          66          48
3240          60          45
3250          68          46
3260          63          46
3270          66          49
3280          65          50
3290          66          48
3300          69          40
3310          66          43
3320          65          44
3330          65          41
3340          67          45
3350          63          51
3360          65          45
3370          68          44
3380          64          54
3390          63          43
3400          68          47
3410          67          47
3420          63          42
3430          71          43
3440          66          45
3450          67          50
3460          70          53
3470          70          45
3480          69          53
3490          70          41
3500          68          44
3510          68          49
3520          69          44
3530          70          41
3540          63          48
3550          70          45
3560          63          53
3570          65          46
3580          70          49
3590          69          51
3600          69          44
3610          69          45
3620          67          56
3630          68          46
3640          68          48
3650          68          47
3660          66          42
3670          69          43
3680          67          48
3690          66          49
3700          68          38
3710          66          44
3720          67          43
3730          73          42
3740          66          53
3750          66          44
3760          63          37
3770          65          50
3780          69          50
3790          69          45
3800          67          46
3810          72          45
3820          67          53
3830          66          46
3840          67          41
3850          63          48
3860          65          48
3870          64          43
3880          67          38
3890          68          40
3900          68          42
3910          64          43
3920          66          47
3930          63          44
3940          66          47
3950          67          39
3960          68          36
3970          66          42
3980          64          45
3990          67          39
4000          69          42
4010          66          41
4020          69          43
4030          69          43
4040          68          41
4050          67          38
4060          68          36
4070          71          39
4080          63          45
4090          68          36
4100          71          42
4110          66          42
4120          70          42
4130          68          42
4140          67          40
4150          64          40
4160          69          44
4170          64          54
4180          69          42
4190          70          42
4200          69          45
4210          70          47
4220          69          51
4230          70          45
4240          70          44
4250          65          43
4260          72          38
4270          71          44
4280          69          45
4290          68          40
4300          71          44
4310          68          46
4320          69          43
4330          72          45
4340          68          40
4350          66          39
4360          65          38
4370          68          37
4380          68          39
4390          66          36
4400          66          41
4410          68          41
4420          69          39
4430          65          44
4440          65          44
4450          66          43
4460          66          45
4470          69          43
4480          69          43
4490          66          39
4500          68          42
4510          62          44
4520          65          45
4530          68          39
4540          68          39
4550          65          42
4560          68          40
4570          65          42
4580          65          41
4590          65          40
4600          66          44
4610          70          39
4620          67          43
4630          67          38
4640          66          40
4650          64          40
4660          65          38
4670          65          39
4680          69          37
4690          63          41
4700          72          43
4710          64          46
4720          65          38
4730          65          47
4740          66          41
4750          68          39
4760          68          42
4770          65          42
4780          69          53
4790          71          43
4800          66          38
4810          63          40
4820          65          43
4830          68          40
4840          70          45
4850          70          42
4860          64          42
4870          68          48
4880          64          47
4890          63          37
4900          66          46
4910          67          45
4920          65          47
4930          67          43
4940          72          46
4950          65          54
4960          67          36
4970          69          52
4980          69          39
4990          69          42
5000          69          44
5010          70          43
5020          67          44
5030          66          41
5040          72          45
5050          68          42
5060          69          49
5070          69          42
5080          69          45
5090          66          45
5100          71          40
5110          66          43
5120          67          38
5130          63          41
5140          68          39
5150          67          44
5160          66          46
5170          70          41
5180          70          49
5190          71          47
5200          66          48
5210          71          47
5220          70          43
5230          70          45
5240          65          42
5250          71          41
5260          72          40
5270          68          41
5280          67          44
5290          63          39
5300          67          45
5310          66          46
5320          68          40
5330          65          51
5340          69          50
5350          68          43
5360          68          38
5370          68          47
5380          64          41
5390          68          45
5400          67          43
5410          70          45
5420          64          36
5430          64          43
5440          66          43
5450          67          44
5460          67          45
5470          70          43
5480          64          46
5490          68          41
5500          65          42
5510          68          47
5520          66          50
5530          69          49
5540          61          46
5550          60          50
5560          59          47
5570          66          48
5580          65          46
5590          64          42
5600          67          47
5610          65          42
5620          67          50
5630          67          50
5640          66          51
5650          68          45
5660          69          45
5670          68          43
5680          66          46
5690          68          47
5700          71          44
5710          68          50
5720          68          46
5730          73          48
5740          70          50
5750          68          48
5760          71          44
5770          70          45
5780          68          46
5790          69          50
5800          68          47
5810          66          43
5820          63          48
5830          73          41
5840          67          46
5850          68          53
5860          66          43
5870          64          42
5880          63          42
5890          72          44
5900          70          55
5910          68          53
5920          64          45
5930          69          47
5940          64          43
5950          65          50
5960          67          45
5970          68          41
5980          71          47
5990          67          49
6000          64          50
6010          68          49
6020          66          45
6030          64          46
6040          65          45
6050          67          50
6060          66          42
6070          63          43
6080          62          47
6090          71          44
6100          66          48
6110          66          47
6120          63          46
6130          64          39
6140          64          43
6150          69          47
6160          64          43
6170          66          45
6180          68          43
6190          66          47
6200          62          46
6210          63          43
6220          66          42
6230          67          45
6240          67          47
6250          66          43
6260          70          45
6270          63          54
6280          63          51
6290          66          46
6300          66          50
6310          66          44
6320          65          47
6330          68          49
6340          68          47
6350          66          44
6360          65          47
6370          68          45
6380          70          44
6390          65          53
6400          62          49
6410          69          49
6420          60          40
6430          69          47
6440          68          43
6450          70          43
6460          67          41
6470          65          49
6480          64          49
6490          71          50
6500          68          52
6510          72          50
6520          67          46
6530          71          48
6540          70          43
6550          70          49
6560          71          43
6570          67          41
6580          67          49
6590          65          49
6600          65          42
6610          66          45
6620          68          48
6630          67          53
6640          69          53
6650          67          40
6660          67          45
6670          61          47
6680          65          39
6690          64          52
6700          68          40
6710          65          44
6720          66          43
6730          69          39
6740          67          46
6750          66          40
6760          64          53
6770          67          43
6780          65          48
6790          69          39
6800          69          56
6810          66          48
6820          67          50
6830          72          42
6840          69          44
6850          67          46
6860          68          43
6870          65          51
6880          65          50
6890          64          47
6900          68          44
6910          67          45
6920          69          50
6930          69          43
6940          64          50
6950          64          44
6960          70          41
6970          71          40
6980          67          53
6990          70          47
7000          65          52
7010          66          46
7020          72          47
7030          66          47
7040          67          48
7050          69          54
7060          64          50
7070          64          43
7080          68          47
7090          65          45
7100          67          44
7110          65          48
7120          68          45
7130          66          42
7140          68          54
7150          66          47
7160          67          44
7170          63          48
7180          62          43
7190          64          54
7200          66          39
7210          67          42
7220          60          40
7230          62          40
7240          65          40
7250          65          39
7260          64          40
7270          62          44
7280          59          49
7290          65          45
7300          63          51
7310          67          41
7320          64          43
7330          63          44
7340          66          44
7350          67          44
7360          66          44
7370          66          48
7380          68          51
7390          65          43
7400          66          45
7410          67          45
7420          64          44
7430          63          46
7440          64          43
7450          65          50
7460          69          51
7470          61          49
7480          69          48
7490          64          48
7500          66          44
7510          62          42
7520          64          43
7530          65          44
7540          65          48
7550          61          38
7560          68          46
7570          66          41
7580          64          39
7590          68          42
7600          63          42
7610          68          40
7620          64          55
7630          59          53
7640          65          44
7650          67          48
7660          69          51
7670          61          49
7680          66          45
7690          67          50
7700          68          42
7710          65          47
7720          70          48
7730          62          44
7740          68          43
7750          68          53
7760          67          44
7770          64          53
7780          70          47
7790          67          45
7800          65          50
7810          66          49
7820          70          46
7830          68          47
7840          67          52
7850          64          52
7860          65          51
7870          65          52
7880          62          47
7890          62          46
7900          64          42
7910          64          49
7920          66          46
7930          66          50
7940          66          55
7950          63          48
7960          67          54
7970          62          50
7980          61          47
7990          65          42
8000          63          44
8010          63          47
8020          62          49
8030          65          49
8040          71          42
8050          64          53
8060          66          45
8070          61          50
8080          68          50
8090          69          47
8100          69          45
8110          59          45
8120          69          42
8130          67          46
8140          70          47
8150          68          45
8160          66          51
8170          65          54
8180          64          54
8190          68          45
8200          69          50
8210          66          47
8220          59          52
8230          68          43
8240          69          41
8250          66          45
8260          60          52
8270          62          52
8280          64          47
8290          63          48
8300          62          44
8310          66          45
8320          66          42
8330          64          51
8340          66          43
8350          68          46
8360          69          40
8370          60          48
8380          61          47
8390          61          48
8400          61          42
8410          62          41
8420          62          42
8430          61          46
8440          55          42
8450          58          43
8460          62          43
8470          63          46
8480          64          48
8490          62          43
8500          60          43
8510          60          47
8520          63          45
8530          57          52
8540          58          38
8550          61          33
8560          63          41
8570          58          39
8580          59          45
8590          58          48
8600          61          41
8610          61          42
8620          61          37
8630          63          43
8640          60          42
8650          62          48
8660          62          41
8670          59          38
8680          60          43
8690          59          43
8700          62          42
8710          62          45
8720          63          41
8730          57          41
8740          56          41
8750          59          42
8760          62          32
8770          61          43
8780          58          41
8790          60          46
8800          61          38
8810          59          34
8820          60          51
8830          60          39
8840          58          38
8850          61          38
8860          63          34
8870          63          35
8880          57          40
8890          61          39
8900          62          38
8910          62          38
8920          61          36
8930          59          31
8940          60          36
8950          58          40
8960          56          35
8970          57          39
8980          56          39
8990          58          32
9000          57          36
9010          55          42
9020          61          38
9030          59          40
9040          56          39
9050          59          35
9060          59          40
9070          59          36
9080          61          40
9090          58          36
9100          54          44
9110          52          43
9120          57          33
9130          55          41
9140          56          38
9150          63          36
9160          62          38
9170          59          40
9180          60          33
9190          58          37
9200          57          42
9210          54          38
9220          57          39
9230          60          34
9240          59          35
9250          58          43
9260          57          33
9270          56          42
9280          56          34
9290          58          34
9300          62          32
9310          58          34
9320          56          38
9330          58          35
9340          57          32
9350          58          34
9360          60          44
9370          59          37
9380          61          34
9390          60          36
9400          63          36
9410          61          33
9420          62          32
9430          60          28
9440          60          31
9450          62          31
9460          57          36
9470          58          35
9480          62          38
9490          60          38
9500          53          41
9510          64          32
9520          60          37
9530          60          41
9540          59          34
9550          58          36
9560          63          36
9570          64          34
9580          62          36
9590          55          33
9600          60          33
9610          59          37
9620          60          39
9630          59          36
9640          63          33
9650          60          41
9660          62          41
9670          59          38
9680          57          43
9690          61          38
9700          58          45
9710          57          36
9720          61          40
9730          59          37
9740          61          30
9750          56          36
9760          63          39
9770          62          40
9780          60          41
9790          64          38
9800          61          42
9810          64          37
9820          58          37
9830          63          40
9840          61          36
9850          62          38
9860          61          37
9870          65          36
9880          61          34
9890          59          43
9900          64          39
9910          68          46
9920          63          41
9930          63          49
9940          61          40
9950          64          42
9960          64          33
9970          64          38
9980          66          32
9990          58          42
10000          67          35
