Time   C(t)   
ps   
0           1           1  1.02215e-10   0.0238921
10    0.766782    0.774192    -1.29715   0.0140086
20    0.719827    0.728729     1.10915   0.0041252
30    0.684278     0.69431      1.3256  0.00326913
40    0.654445    0.665424     1.42038  0.00291843
50     0.62591    0.637796     1.49196  0.00264786
60    0.601487    0.614149    0.273856   0.0024013
70    0.577884    0.591296     1.12427  0.00213403
80    0.558807    0.572825   -0.409554  0.00185764
90    0.540731    0.555323    0.172944  0.00184893
100    0.521828    0.537021    0.877679  0.00174348
110    0.505861    0.521562    0.803557  0.00156461
120    0.490536    0.506723   -0.754942  0.00136635
130    0.478534    0.495103     0.11865  0.00135072
140    0.463522    0.480567   -0.611355  0.00146161
150    0.449302    0.466799   -0.319263  0.00132242
160    0.437073    0.454959   -0.953963  0.00120796
170    0.425143    0.443408   -0.540821  0.00114172
180    0.414239     0.43285    -1.24791  0.00113282
190    0.402486    0.421471   -0.858563  0.00104991
200    0.393241    0.412519    -1.24886  0.000883015
210    0.384826    0.404372    -0.25215  0.00086485
220    0.375944    0.395772    0.136435  0.000877821
230     0.36727    0.387373    0.257485  0.000814272
240    0.359658    0.380004   -0.838117  0.000794625
250    0.351377    0.371986    -0.93632  0.000758383
260     0.34449    0.365318    -1.61871  0.000734809
270    0.336681    0.357756   -0.182685  0.000666861
280    0.331153    0.352405    0.327092  0.000593783
290    0.324805    0.346258    0.935311  0.000673451
300    0.317684    0.339363    0.204474  0.000665912
310    0.311487    0.333363    0.885176  0.00068249
320    0.304034    0.326147    0.884819  0.000671154
330    0.298064    0.320367    0.251141  0.000645965
340    0.291115    0.313639    0.615858  0.000602739
350    0.286009    0.308695     1.73433  0.000525172
360    0.280612    0.303469  0.00699775  0.000521156
370    0.275586    0.298603    0.346659  0.000486508
380    0.270882    0.294048   0.0297487  0.000516951
390    0.265247    0.288592     1.07526  0.000558899
400    0.259704    0.283225     0.44301  0.000502478
410    0.255197    0.278862    0.637184  0.000499725
420    0.249709    0.273548    0.539431  0.000487888
430     0.24544    0.269414     1.00114  0.000427377
440    0.241161    0.265272     1.65738  0.000450091
450    0.236438    0.260698    0.124174  0.00048706
460     0.23142     0.25584   -0.095269  0.000471342
470    0.227011    0.251571    0.172623  0.00045299
480     0.22236    0.247068   -0.289966  0.000438459
490    0.218242    0.243081    -1.26342  0.000423897
500    0.213883     0.23886    -1.62924  0.000383417
510    0.210574    0.235656    -2.87056  0.000354529
520    0.206792    0.231995    -1.41098  0.000410949
530    0.202355    0.227698    -2.06788  0.000439025
540    0.198011    0.223493    -1.24113  0.000425678
550    0.193841    0.219455    -1.14385  0.000340794
560    0.191196    0.216894    -1.99611  0.000305159
570    0.187738    0.213546    -1.07151  0.000380026
580    0.183595    0.209535     -1.2663  0.000296036
590    0.181817    0.207813    -1.02427  0.000318981
600    0.177215    0.203358     -0.9022  0.000322133
610    0.175374    0.201575   -0.513805  0.00023661
620    0.172483    0.198776   -0.829718  0.00024493
630    0.170476    0.196832   -0.733272  0.000223213
640    0.168019    0.194454   -0.587476  0.000181653
650    0.166843    0.193315    -0.70969  0.000163738
660    0.164744    0.191283   -0.977391  0.000295535
670    0.160932    0.187592    -1.48779  0.000290833
680    0.158928    0.185651    -1.48886  0.000242803
690    0.156076     0.18289   -0.588735  0.000256453
700    0.153799    0.180685   -0.272442  0.000253084
710    0.151014    0.177989   0.0921802  0.000187474
720    0.150049    0.177054    -1.48985  0.000219745
730    0.146619    0.173734    -1.24616  0.000255878
740    0.144931      0.1721    -0.93025  0.000219374
750    0.142232    0.169486    -1.34415  0.000255641
760    0.139819    0.167149    -1.22241  0.000201724
770    0.138197     0.16558   -0.784715  0.000127664
780    0.137265    0.164677    -1.00352  0.000137306
790    0.135451    0.162921   -0.882538  0.00018691
800    0.133527    0.161058    -1.34434  0.00018729
810    0.131706    0.159294      -1.272  0.000151642
820    0.130494    0.158121   -0.639393  0.000188131
830    0.127943    0.155651   -0.712398  0.000177745
840    0.126939    0.154679    -1.07778  0.000117872
850    0.125585    0.153368    -1.10179  0.000116769
860    0.124604    0.152418   -0.299684  0.000131828
870    0.122949    0.150815     -1.2241  0.000106507
880    0.122474    0.150356    -1.32178  7.98948e-05
890    0.121351    0.149268       -1.03  0.000117775
900    0.120118    0.148075     -1.3462  8.15764e-05
910    0.119719    0.147689    -1.54127  6.82961e-05
920    0.118752    0.146752    -1.59001  0.000114406
930    0.117431    0.145473    -2.53924  0.000114646
940     0.11646    0.144532    -2.68525  0.000133894
950    0.114753     0.14288     -1.6638  0.000158578
960    0.113288    0.141461    -1.71189  0.000119546
970    0.112363    0.140565    -1.34722  5.72681e-05
980    0.112143    0.140353    -1.85849  4.51617e-05
990    0.111459    0.139691   -0.739569  0.000117502
1000    0.109793    0.138077    -1.68781  0.00015183
1010    0.108423    0.136751    -1.15304  8.2498e-05
1020    0.108143     0.13648   -0.593345  3.34997e-05
1030    0.107753    0.136102    -1.03166  8.69744e-05
1040    0.106403    0.134795   -0.861617  0.000106319
1050    0.105626    0.134043    -1.22671  0.000134031
1060    0.103723      0.1322     -1.0076  0.000149384
1070    0.102639    0.131151   -0.910208  5.62295e-05
1080    0.102598    0.131111   -0.253897  0.00010461
1090    0.100546    0.129125   -0.789087  0.000173664
1100   0.0991246    0.127748   -0.716153  7.19536e-05
1110   0.0991074    0.127731   -0.570831  8.60073e-05
1120   0.0974045    0.126083   -0.740923  0.00017326
1130   0.0956422    0.124376   -0.327187  0.000107171
1140   0.0952611    0.124007   -0.814047  8.94703e-05
1150   0.0938528    0.122644   -0.863113  0.000117381
1160   0.0929134    0.121734   -0.425438  0.000124622
1170   0.0913604    0.120231    -1.27723  9.98247e-05
1180   0.0909169    0.119801   -0.960913  6.80726e-05
1190   0.0899989    0.118912   -0.498966  9.88796e-05
1200   0.0889394    0.117886   -0.961602  9.07209e-05
1210   0.0881845    0.117156   -0.864207  5.60142e-05
1220   0.0878191    0.116802      -1.424  0.000113525
1230    0.085914    0.114957   -0.742682  9.68888e-05
1240   0.0858813    0.114926    -1.03454  -9.40636e-07
1250   0.0859328    0.114975      -1.351  3.41475e-05
1260   0.0851983    0.114264    -1.22933  8.19728e-05
1270   0.0842934    0.113388   -0.742706  3.8524e-05
1280   0.0844279    0.113518   -0.329326  6.40269e-05
1290   0.0830128    0.112148    -0.30522  9.51301e-05
1300   0.0825253    0.111676   -0.621656  7.7045e-05
1310   0.0814719    0.110656   -0.329587  1.4988e-05
1320   0.0822255    0.111386   -0.402996  5.3335e-05
1330   0.0804052    0.109623   -0.719051  8.8726e-05
1340    0.080451    0.109668  -0.0623368  6.06734e-05
1350   0.0791918    0.108449    0.326795  6.49992e-05
1360    0.079151    0.108409  -0.0382073  8.79742e-05
1370   0.0774323    0.106745    0.205365  0.000126512
1380   0.0766208    0.105959    0.229399  0.000128281
1390   0.0748667    0.104261    -0.11088  5.86171e-05
1400   0.0754484    0.104824   -0.233284  6.74557e-05
1410   0.0735175    0.102955   -0.330252  0.000140402
1420   0.0726404    0.102105   -0.768379  6.49083e-05
1430   0.0722194    0.101698   0.0587131  5.79167e-05
1440    0.071482    0.100984   -0.476786  5.8037e-05
1450   0.0710586    0.100574   -0.573991  8.83657e-05
1460   0.0697147   0.0992727  -0.0631445  6.55033e-05
1470   0.0697486   0.0993054   -0.306717  6.57339e-05
1480      0.0684   0.0979997   -0.282351  8.45511e-05
1490   0.0680575   0.0976681   -0.526042  6.74922e-05
1500   0.0670502   0.0966928    0.155063  7.91706e-05
1510   0.0664741    0.096135   -0.672171  5.91259e-05
1520   0.0658677   0.0955478   -0.234139  9.11299e-05
1530   0.0646515   0.0943703    0.106425  0.00013337
1540   0.0632003   0.0929652    0.447156  8.14032e-05
1550   0.0630235    0.092794    0.665744  4.82311e-05
1560   0.0622357   0.0920312     0.47138  0.000112355
1570   0.0607764   0.0906183    0.471427  0.000122783
1580     0.05978   0.0896536    0.860417  3.2641e-05
1590   0.0601236   0.0899862    0.665791  6.6217e-07
1600   0.0597667   0.0896408   0.0816541  7.52097e-05
1610   0.0586194   0.0885298   -0.623699  9.7305e-05
1620   0.0578206   0.0877565   -0.380506  8.72994e-05
1630   0.0568734   0.0868393    0.033087  5.37394e-05
1640   0.0567459   0.0867159   -0.234805  4.36289e-05
1650   0.0560008   0.0859945   -0.721237  5.98824e-05
1660   0.0555482   0.0855563   -0.794219  6.44624e-05
1670   0.0547116   0.0847462   -0.843095  8.08166e-05
1680   0.0539319   0.0839913    -1.01338  6.77239e-05
1690   0.0533571   0.0834347    -1.06247  6.19862e-05
1700   0.0526922   0.0827909    -1.37867  0.000112457
1710   0.0511079   0.0812571    -1.57343   0.0001349
1720   0.0499942   0.0801787    -1.35446  7.44225e-05
1730   0.0496195   0.0798159    -1.08683  3.30539e-05
1740   0.0493331   0.0795386    -1.20867  2.42179e-05
1750   0.0491351   0.0793469   -0.989628  5.10853e-05
1760   0.0483114   0.0785494   -0.844045  8.24777e-05
1770   0.0474856   0.0777498   -0.649206  7.07377e-05
1780   0.0468966   0.0771796    -1.08738  7.83974e-05
1790   0.0459176   0.0762317   -0.916861  7.85671e-05
1800   0.0453253   0.0756581    -1.03874  7.72824e-05
1810    0.044372   0.0747351   -0.576225  6.24483e-05
1820   0.0440763   0.0744489   -0.503386  4.91254e-05
1830   0.0433895   0.0737838   -0.260003  5.5236e-05
1840   0.0429716   0.0733792   0.0562894  3.12997e-05
1850   0.0427635   0.0731777  -0.0657821  4.34486e-05
1860   0.0421026   0.0725379   -0.309212  7.67337e-05
1870   0.0412288   0.0716918  -0.0412725  3.45964e-05
1880   0.0414107   0.0718679    0.250558  1.35606e-05
1890   0.0409576   0.0714292    0.396426  1.35595e-05
1900   0.0411395   0.0716054    0.153068  -7.59996e-06
1910   0.0411096   0.0715764    0.226168  -3.08082e-06
1920   0.0412011    0.071665  -0.0416291  9.08673e-06
1930   0.0409278   0.0714004   -0.504004   3.649e-05
1940   0.0404713   0.0709584   -0.187402  5.94283e-05
1950   0.0397393   0.0702496    0.177482  5.80344e-05
1960   0.0393106   0.0698346     0.51807  2.6112e-05
1970    0.039217    0.069744    0.177268  6.29149e-05
1980   0.0380523   0.0686163    0.347645  5.68777e-05
1990   0.0380795   0.0686426    0.907202  3.10209e-05
2000   0.0374319   0.0680156    0.444875  3.71972e-05
2010   0.0373355   0.0679223    0.614824  -2.26393e-05
2020   0.0378847    0.068454     0.54151  3.43051e-05
2030   0.0366494    0.067258    0.687925  3.73615e-05
2040   0.0371375   0.0677305     1.07699  2.21323e-05
2050   0.0362068   0.0668294    0.395761  3.75539e-05
2060   0.0363864   0.0670033    0.809093  9.86457e-06
2070   0.0360095   0.0666384     1.00369  3.7737e-05
2080   0.0356316   0.0662725    0.784798  2.38737e-05
2090    0.035532    0.066176    0.979471  2.86164e-05
2100   0.0350593   0.0657184    0.711792  7.22064e-05
2110   0.0340879   0.0647778    0.930856  0.000128414
2120   0.0324911   0.0632317    0.930903  0.000122468
2130   0.0316385   0.0624063     1.19842  7.59904e-05
2140   0.0309712   0.0617602    0.735874  4.18082e-05
2150   0.0308024   0.0615967     1.00355  6.22912e-05
2160   0.0297254   0.0605539    0.395238  9.37321e-05
2170   0.0289277   0.0597816    0.760194  6.26129e-05
2180   0.0284732   0.0593415    0.906156  -2.51854e-05
2190   0.0294314   0.0602693     1.10035  6.3017e-06
2200   0.0283471   0.0592194    0.565259  3.13869e-05
2210   0.0288037   0.0596615     1.07608  1.60057e-06
2220   0.0283151   0.0591884     1.22207  5.8396e-05
2230   0.0276358   0.0585307    0.565022  7.27664e-05
2240   0.0268598   0.0577793     1.12455  7.1364e-05
2250   0.0262085   0.0571488    0.491826  3.82612e-05
2260   0.0260946   0.0570384    0.905467  2.09373e-05
2270   0.0257898   0.0567433     1.31897  6.67665e-06
2280    0.025961   0.0569091     1.24579  4.33248e-05
2290   0.0249233   0.0559044      1.0511  7.04488e-05
2300   0.0245521   0.0555449     1.12429  1.80234e-05
2310   0.0245628   0.0555553    0.905087  4.36556e-05
2320   0.0236789   0.0546996    0.856615  8.53048e-05
2330   0.0228567   0.0539034     0.97852  6.47094e-05
2340   0.0223848   0.0534465    0.954177  1.51785e-05
2350   0.0225531   0.0536095      1.1242  1.84715e-05
2360   0.0220153   0.0530888    0.929763  4.90288e-05
2370   0.0215725   0.0526601     1.17288  4.11134e-05
2380   0.0211931   0.0522927     1.17312  3.4775e-05
2390    0.020877   0.0519867     1.29467  5.80885e-06
2400   0.0210769   0.0521802    0.759077  1.55592e-05
2410   0.0205659   0.0516854    0.394074  5.76413e-05
2420   0.0199241    0.051064    0.661895  4.48166e-05
2430   0.0196695   0.0508175    0.977855  2.5487e-05
2440   0.0194143   0.0505704     0.73452  4.01799e-05
2450   0.0188659   0.0500395    0.515385  6.30489e-05
2460   0.0181533   0.0493495    0.685976  3.71363e-05
2470   0.0181232   0.0493204    0.296631  4.70678e-05
2480    0.017212   0.0484381    0.442475  5.53001e-05
2490   0.0170172   0.0482495   -0.214525  1.45972e-05
2500     0.01692   0.0481554    0.174892  4.74092e-05
2510    0.016069   0.0473314    0.029119  3.60022e-05
2520      0.0162   0.0474582    0.077496  1.15239e-05
2530   0.0158385   0.0471083   -0.579504  2.79697e-05
2540   0.0156406   0.0469166   -0.628071  3.29973e-05
2550   0.0151786   0.0464693   -0.555161  2.97719e-05
2560   0.0150452   0.0463401   -0.603799  1.79894e-06
2570   0.0151426   0.0464345   -0.530984  -4.79636e-06
2580   0.0151411    0.046433   -0.482346  7.13553e-05
2590   0.0137155   0.0450527  -0.0929524  5.48688e-05
2600   0.0140437   0.0453705    0.028715  -7.95671e-06
2610   0.0138746   0.0452068   -0.263449  1.69286e-05
2620   0.0137051   0.0450427    -0.31204  4.02824e-05
2630    0.013069   0.0444267    -0.26333  1.03501e-05
2640   0.0134981   0.0448422   -0.141686  2.10502e-06
2650   0.0130269    0.044386   -0.117295  1.70954e-05
2660   0.0131562   0.0445112   -0.214644  -2.96897e-05
2670   0.0136207   0.0449609   -0.336597  -3.31023e-05
2680   0.0138183   0.0451522   -0.312182  3.56101e-05
2690   0.0129085   0.0442713   -0.287934  4.40399e-05
2700   0.0129375   0.0442994   -0.604441  3.41248e-05
2710    0.012226   0.0436105   -0.579932  6.61892e-05
2720   0.0116137   0.0430177   -0.506998  4.61255e-05
2730   0.0113035   0.0427173   -0.531436  4.02085e-06
2740   0.0115333   0.0429398   -0.507211  1.76109e-05
2750   0.0109513   0.0423763   -0.604465  2.77715e-05
2760   0.0109778    0.042402   -0.604536  -1.6238e-05
2770    0.011276   0.0426907   -0.628903  -1.79626e-05
2780   0.0113371   0.0427499   -0.434349  1.94124e-05
2790   0.0108878   0.0423148   -0.969372  4.09302e-06
2800   0.0112552   0.0426706    -1.01827  1.09882e-05
2810    0.010668    0.042102   -0.750641  4.17123e-05
2820    0.010421   0.0418629     -0.9209  2.30271e-05
2830   0.0102075   0.0416561    -0.38571  9.38508e-06
2840   0.0102333   0.0416811   -0.896486  -4.30057e-06
2850   0.0102935   0.0417394   -0.580169  -5.07109e-05
2860   0.0112475   0.0426631   -0.409982  -3.01383e-05
2870   0.0108963    0.042323   -0.434325  3.17249e-05
2880    0.010613   0.0420488   -0.482821  7.65794e-06
2890   0.0107431   0.0421747  -0.0936178  -9.57306e-06
2900   0.0108045   0.0422342   -0.507283  -1.99899e-05
2910   0.0111429   0.0425618   -0.531554  -2.52243e-05
2920    0.011309   0.0427226   -0.507473  -6.21625e-06
2930   0.0112672   0.0426822   -0.142494  -9.72617e-06
2940   0.0115035    0.042911    -0.36151  -6.25416e-06
2950   0.0113923   0.0428033   -0.458597  -2.54688e-05
2960   0.0120129   0.0434042   -0.239724  -2.89789e-05
2970   0.0119719   0.0433645    -0.43442  -2.38642e-05
2980   0.0124901   0.0438663   -0.458787  -1.68917e-05
2990   0.0123097   0.0436916  -0.0694887  1.80692e-05
3000   0.0121288   0.0435164  -0.0941642  1.63645e-05
3010   0.0119824   0.0433747    0.222461  -2.92923e-05
3020   0.0127146   0.0440836    0.246709  -2.22703e-05
3030   0.0124278   0.0438059  -0.0452882  2.27196e-06
3040   0.0126692   0.0440396    0.173799  -1.53388e-05
3050   0.0127346    0.044103    0.417063  3.23446e-05
3060   0.0120223   0.0434133   0.0278121  4.83164e-05
3070   0.0117683   0.0431673  -0.0208739  2.01176e-05
3080   0.0116199   0.0430237    0.027717  1.13052e-05
3090   0.0115422   0.0429484   -0.191275  2.20135e-05
3100   0.0111796   0.0425974     0.12497  6.86012e-07
3110   0.0115285   0.0429351   -0.410338  7.87266e-06
3120   0.0110222    0.042445   -0.410338  6.90063e-07
3130   0.0115146   0.0429218   -0.288766  -3.14311e-05
3140   0.0116508   0.0430536   -0.483486  1.86065e-05
3150   0.0111425   0.0425615   -0.361795  3.11704e-05
3160   0.0110274     0.04245   -0.459499  1.87148e-05
3170   0.0107682   0.0421991    -0.11884  1.87602e-05
3180   0.0106522   0.0420867   -0.483795  2.24286e-05
3190   0.0103197   0.0417647   -0.216069  4.05234e-05
3200  0.00984174    0.041302   -0.435014  1.71406e-05
3210  0.00997684   0.0414328   -0.289075  1.72343e-05
3220  0.00949705   0.0409683   -0.240389  3.71767e-05
3230  0.00923331   0.0407129    -0.14304  2.27842e-05
3240  0.00904137   0.0405271  -0.0213965  4.83057e-05
3250  0.00826719   0.0397775  -0.0700588  3.9303e-05
3260  0.00825531    0.039766  0.00299413  1.2129e-05
3270  0.00802461   0.0395426  0.00297019  4.13626e-05
3280  0.00742806    0.038965   0.0758329  4.32857e-05
3290   0.0071589   0.0387044   -0.216141  3.42837e-05
3300  0.00674238   0.0383011  0.00275639  5.08841e-05
3310  0.00614122   0.0377191   -0.289146  3.63252e-05
3320  0.00601588   0.0375977   -0.240579  8.87492e-06
3330  0.00596372   0.0375472   -0.313537  5.49692e-05
3340   0.0049165   0.0365333   -0.386518  5.13696e-05
3350  0.00493633   0.0365525    -0.14304  -9.37877e-06
3360  0.00510407   0.0367149  -0.0701538  -3.84331e-06
3370  0.00501319   0.0366269   -0.289241  1.28069e-05
3380  0.00484793   0.0364669   0.0758329  3.14023e-05
3390  0.00438515   0.0360188  -0.0944493  3.70539e-05
3400  0.00410685   0.0357493    0.027123  1.80372e-06
3410  0.00434907   0.0359839   -0.216283  -1.30706e-05
3420  0.00436827   0.0360025   -0.240793  -2.24658e-05
3430  0.00479839   0.0364189   -0.143516  -2.62443e-05
3440  0.00489315   0.0365107  -0.0460961  2.42314e-05
3450  0.00431376   0.0359497  -0.0459537  2.05022e-05
3460  0.00448311   0.0361136   -0.045906  -3.80734e-06
3470  0.00438991   0.0360234   -0.386494  -2.26589e-05
3480  0.00493629   0.0365524   -0.094592  -1.94609e-06
3490  0.00442883   0.0360611   -0.021658  2.62833e-05
3500  0.00441062   0.0360435   -0.192011  -1.51908e-05
3510  0.00473265   0.0363553  0.00247123  5.6172e-06
3520  0.00429828   0.0359347   -0.459595  3.02297e-05
3530  0.00412805   0.0357699  -0.0945443  -1.33427e-05
3540  0.00456513   0.0361931   -0.289384  -3.42642e-05
3550  0.00481334   0.0364334   -0.459618  1.13426e-05
3560  0.00433828   0.0359734   -0.216378  3.68997e-06
3570  0.00473954   0.0363619   -0.216378  -1.15203e-05
3580  0.00456869   0.0361965    -0.31375  3.62542e-05
3590  0.00401445   0.0356599   -0.629996  3.82559e-05
3600  0.00380357   0.0354557   -0.946431  3.45611e-05
3610  0.00332323   0.0349906   -0.557228  2.50313e-05
3620  0.00330294    0.034971   -0.435608  5.88424e-06
3630  0.00320555   0.0348767   -0.776173  1.08499e-07
3640  0.00330077   0.0349689   -0.314012  -1.53332e-05
3650  0.00351221   0.0351736   -0.484318  -7.63083e-06
3660  0.00345339   0.0351166   -0.289811  3.69062e-05
3670  0.00277409   0.0344589  -0.0707005  1.75592e-05
3680   0.0031022   0.0347766   -0.362817  2.35287e-05
3690  0.00230351   0.0340033   -0.289835  4.49377e-05
3700  0.00220345   0.0339064   -0.192487  3.14813e-05
3710  0.00167389   0.0333937   -0.265563  5.49932e-05
