Time   C(t)   
ps   
0           1           1  6.26577e-10   0.0304814
10    0.696169     0.88301    0.972705   0.0159915
20    0.680169     0.87685    0.187228  0.00150168
30    0.666136    0.871446    -2.43154  0.00147147
40     0.65074    0.865518    -1.12203  0.00132423
50    0.639651    0.861248    0.186589  0.00100976
60    0.630545    0.857742   -0.728075  0.000527033
70    0.629111    0.857189    -2.03989  0.000762802
80    0.615289    0.851867    -1.90738  0.00106527
90    0.607805    0.848986    -1.64593  0.000883284
100    0.597623    0.845065   -0.729225  0.000381339
110    0.600178    0.846049  -0.0774103  0.00029873
120    0.591648    0.842765   -0.731015  0.000702471
130    0.586129    0.840639    -1.38513  0.000569338
140    0.580262     0.83838   -0.207492  0.000250292
150    0.581123    0.838712   -0.995525  0.000504175
160    0.570178    0.834498   -0.864037  0.00131522
170    0.554819    0.828584   -0.993863  0.000827456
180    0.553629    0.828125    -1.51726  6.83278e-05
190    0.553452    0.828057    -3.61301  -0.000151718
200    0.556663    0.829294   -0.996548  0.000238186
210    0.548689    0.826223   -0.733444   0.0003739
220    0.549185    0.826414   -0.604385  0.00071491
230     0.53439    0.820718     -0.6017  0.000630552
240    0.536574    0.821559    0.312708  0.000326267
250    0.527865    0.818205   -0.340641  0.000496802
260    0.526638    0.817733   -0.734339  -4.7794e-05
270    0.528821    0.818573     1.22839  0.000447613
280    0.517686    0.814286    0.442406  0.000584602
290    0.517129    0.814071      2.5365  5.58197e-05
300     0.51657    0.813856    0.964523  0.000415733
310    0.508814     0.81087     1.62081  0.000656286
320    0.503444    0.808802     2.93045  0.000365916
330    0.501496    0.808052    0.834313  0.000384022
340    0.495764    0.805844    0.705766  0.000401834
350    0.493459    0.804957   -0.473153  2.40251e-05
360    0.495283    0.805659   -0.212861  0.000110471
370     0.49125    0.804106    0.966185  0.000196648
380     0.49135    0.804145    -2.17726  0.000300911
390    0.485232    0.801789    0.179557  0.000162908
400    0.488092     0.80289     -3.2243  9.44719e-05
410    0.483342    0.801062    -4.53381  0.000215563
420    0.483781     0.80123     -1.6545  0.000233652
430    0.478669    0.799262    -3.74885  0.000772139
440    0.468338    0.795284   -0.868512  0.000547481
450    0.467719    0.795046    -2.83252  0.000531769
460    0.457702    0.791189    -1.12944  9.69112e-05
470    0.465781      0.7943   -0.871452  -0.000250703
480    0.462717     0.79312    -2.70436  0.000778091
490    0.450219    0.788308    -2.70078  0.000482187
500    0.453073    0.789406    -2.57134  -4.07889e-05
510    0.451035    0.788622   -0.869535  0.000711861
520    0.438836    0.783924   -0.606431  0.000800496
530    0.435025    0.782457   -0.607837  -0.000250316
540    0.443842    0.785852    -1.78816  -0.000267746
550     0.44038    0.784519   -0.872859  0.000381716
560    0.436208    0.782912     -1.6568  0.000488116
570    0.430618     0.78076   -0.479417  0.000242344
580    0.431361    0.781046   -0.480695  0.000172639
590    0.427165    0.779431    -2.31322  0.000826193
600    0.414837    0.774684    0.306955  0.000580019
610    0.415565    0.774964    -3.61992  1.55881e-05
620    0.414525    0.774564     -3.4906  -0.000356537
630    0.422695     0.77771    -2.18084  -0.000161694
640    0.417759    0.775809    -3.62145  0.000636217
650    0.409971     0.77281    -1.26477  0.000530793
660    0.407143    0.771721    -2.83713  -0.000143938
670     0.41285    0.773919   -0.613206  0.000354959
680    0.400044    0.768988  -0.0871262  0.000319061
690    0.406469    0.771461    -1.00499  5.30109e-05
700    0.398984    0.768579     -1.1352  0.000767177
710    0.391125    0.765553    -0.61065  0.000357351
720    0.391837    0.765827   -0.874009  0.000125781
730    0.388609    0.764585      1.2206  3.62068e-05
740    0.391113    0.765549     -2.3145  -0.000304417
750    0.394698    0.766929    -2.05472  0.00012619
760    0.388589    0.764577    -3.36269  0.000719507
770    0.380308    0.761388    -1.92208  5.4729e-05
780    0.387494    0.764155    -1.40073  0.000326027
790    0.373787    0.758878    -1.79149  0.000524114
800    0.377012    0.760119    -4.80472  -0.000196384
810    0.377715     0.76039    -5.06603  1.95056e-06
820    0.376973    0.760104    -4.28081  0.000707936
830    0.363556    0.754938    -3.75588  0.000183234
840    0.373308    0.758693    -4.54276  -0.000178002
850    0.367116    0.756309    -4.28055  0.000510933
860     0.36309    0.754758    -2.31641  0.000494021
870    0.357236    0.752504    -2.70998  0.000258343
880    0.357923    0.752769    -2.31757  0.000514401
890    0.346948    0.748543    -2.05446  0.000478387
900    0.348355    0.749085    -2.97143  0.000133125
910    0.344285    0.747518    -2.70999  0.000315981
920    0.342035    0.746652    -3.10317  6.05032e-05
930    0.343075    0.747052    -3.10317  0.000225741
940    0.337521    0.744913    -2.57862  -0.000122693
950    0.345529    0.747997     -1.9254  -0.000618038
960    0.349881    0.749673    -1.53426  0.000207731
970    0.341374    0.746397    -2.84211  0.000501955
980    0.339842    0.745807   -0.878995  0.00050344
990    0.331306     0.74252    -2.31859  0.000670174
1000    0.326439    0.740646    -3.10279  0.000210215
1010    0.327101    0.740901    0.169586  -0.000251183
1020    0.331462     0.74258     0.69183  -0.000140479
1030    0.329911    0.741983   -0.748914  0.000247987
1040    0.326503    0.740671    -2.71165  0.000229852
1050    0.325314    0.740213   -0.485938  4.4775e-05
1060    0.325607    0.740326   0.0372019  0.000230926
1070    0.320695    0.738435    -1.13993  -6.66484e-05
1080     0.32694    0.740839    -1.66562  -0.00032704
1090    0.327236    0.740953    -1.53426  -0.000346747
1100    0.333875    0.743509    0.559959  -4.83975e-05
1110    0.328204    0.741326    0.167284  -4.92021e-05
1120    0.334859    0.743888    -1.79609  -2.98917e-05
1130    0.328802    0.741556    -1.27244  0.000100487
1140    0.332849    0.743114    -1.40431  -1.12697e-05
1150    0.329027    0.741643    -2.05753  8.21427e-05
1160    0.331206    0.742482   -0.617425  -0.000199348
1170    0.333014    0.743178    -1.01163  0.000346035
1180    0.324286    0.739817  -0.0944133  0.00070426
1190    0.318929    0.737754    0.428343  0.000291027
1200    0.318465    0.737576    0.953401  0.000121965
1210     0.31649    0.736815    0.691575  0.000178908
1220    0.314887    0.736198  -0.0946693  0.000236121
1230    0.311767    0.734997    0.953272  0.000122832
1240     0.31243    0.735252    0.036564  -0.000502744
1250    0.321822    0.738868     1.34377  -0.000275446
1260    0.317939    0.737373     1.86883  0.000160517
1270    0.318612    0.737632    0.951482  0.000408627
1280    0.309767    0.734227     1.21446  0.000332792
1290    0.311956     0.73507    0.951866  -0.000219178
1300     0.31415    0.735914    0.297238  -2.86296e-05
1310    0.312529     0.73529    0.951611  -8.62762e-05
1320    0.315876    0.736579    0.296599  4.78163e-05
1330    0.311572    0.734922    0.820889  0.000296685
1340    0.309942    0.734294   -0.225901  0.000143985
1350    0.308693    0.733813     1.47616  -0.00052817
1360    0.320506    0.738362    0.427959  -0.000547852
1370     0.31965    0.738032   -0.488622  4.71592e-05
1380    0.319562    0.737998   -0.489517  -1.05336e-05
1390     0.31986    0.738113    -1.40571  0.00018253
1400    0.315912    0.736593   -0.750319  0.000627185
1410    0.307317    0.733283  -0.0949248  0.000609028
1420    0.303731    0.731903   -0.486832  -2.8491e-05
1430    0.307886    0.733503    -0.61832  -0.000202669
1440    0.307785    0.733463    -1.01087  0.000184944
1450    0.304187    0.732078    0.297877  -0.000106408
1460    0.309913    0.734283    0.689785  6.90475e-05
1470    0.302807    0.731547     1.60752  0.000341235
1480    0.303088    0.731655    -0.22603  0.000108382
1490    0.300639    0.730712    0.167796  -0.000106376
1500    0.305216    0.732474     1.60611  -0.000243086
1510    0.305501    0.732584    0.559831  0.000128072
1520    0.302654    0.731488     1.60688  0.000206576
1530    0.301369    0.730993     3.30881  6.97747e-05
1540    0.301259    0.730951    0.558809  -0.00010681
1550    0.303505    0.731816    0.951611  -0.000165889
1560    0.304576    0.732228      1.7367  1.08823e-05
1570    0.303288    0.731732     1.21305  5.01618e-05
1580    0.303573    0.731842    0.689785  0.000168815
1590    0.299911    0.730432     1.21382  -2.86222e-05
1600    0.304146    0.732062     3.56948  -2.82362e-05
1610    0.300476    0.730649     1.60701  0.000327799
1620     0.29759    0.729538    0.952506  0.000328667
1630    0.293903    0.728118    0.428471  0.000249952
1640    0.292591    0.727613   -0.749936  0.000449486
1650    0.284913    0.724657     1.47718  0.000151648
1660    0.289558    0.726445    0.951995  -0.000485004
1670    0.294613    0.728392   -0.358668  -0.000206809
1680    0.293694    0.728038     1.08041  9.19879e-05
1690    0.292773    0.727683   -0.750831  -4.78029e-05
1700     0.29465    0.728406    0.426425  -0.000167885
1710    0.296131    0.728976  -0.0969699  -2.79874e-05
1720     0.29521    0.728621   -0.752621  0.000132413
1730    0.293483    0.727956      1.6047  7.23764e-05
1740    0.293762    0.728064     1.47373  -0.000470646
1750    0.302896    0.731581   -0.228586  3.24458e-05
1760    0.293113    0.727814  -0.0967144  0.000152414
1770    0.299847    0.730407    -1.66997  -0.00010877
1780    0.295289    0.728652    0.950588  0.000314897
1790    0.293549    0.727982    0.819483  0.000376576
1800    0.287757    0.725752   0.0346461  -4.84213e-05
1810    0.294518    0.728355    0.556891  7.40021e-05
1820    0.286277    0.725182     1.73619  0.000276476
1830    0.288988    0.726226     1.21088  -0.000149426
1840    0.289266    0.726333     1.99648  0.000461134
1850    0.279766    0.722675    0.295449  0.000114983
1860    0.286966    0.725447  -0.0990155  3.4605e-05
1870    0.279074    0.722408  -0.0967145  5.4194e-05
1880    0.285882     0.72503     0.81795  -0.000149448
1890    0.282063    0.723559     1.47296  -0.000170989
1900    0.289302    0.726347    -1.93154  -0.000478549
1910    0.291634    0.727244    -1.01547  0.000136362
1920    0.286575    0.725296    0.424636  9.51067e-05
1930    0.289731    0.726512   -0.884748  -0.000130697
1940    0.289189    0.726303  -0.0999103  0.000487396
1950    0.279983    0.722759    0.163833  0.000260936
1960     0.28397    0.724293    0.686206  -0.000213079
1970    0.284245    0.724399   -0.229481  0.000158744
1980    0.280795    0.723071   0.0331123  5.52788e-05
1990    0.283139    0.723974    -0.88411  -0.000193225
2000    0.284659    0.724559   -0.231016  -0.00015219
2010    0.286183    0.725146     0.55459  0.000117847
2020    0.282302    0.723651   -0.753132  0.000180286
2030    0.282578    0.723757   -0.754539  0.000514701
2040    0.272008    0.719688   -0.229737  0.000160323
2050    0.279371    0.722523    -1.67227  -0.000339934
2060    0.278807    0.722306    -2.45775  -0.000131957
2070     0.28201    0.723539   -0.364038  0.000203326
2080    0.274741     0.72074    0.292636  0.000517993
2090     0.27165     0.71955    -2.32536  -0.000131857
2100    0.277378    0.721755   -0.755434  -0.000173715
2110    0.275125    0.720888   -0.362759  0.000204527
2120    0.273287     0.72018    -1.54104  0.000162886
2130    0.271867    0.719633    0.160892  0.000247815
2140    0.268331    0.718272    0.552416  -0.00034382
2150    0.278743    0.722281     2.12247  0.000100851
2160    0.266314    0.717495   0.0295328  0.000778106
2170    0.263181    0.716289   -0.232037  -6.84366e-05
2180    0.267683    0.718022    -2.85093  8.06883e-05
2190    0.261567    0.715667    -2.71945  0.000527124
2200     0.25714    0.713963    -1.80286  0.000144982
2210    0.258668    0.714551     0.94509  -0.000280996
2220     0.26276    0.716127    0.158847  -0.000132011
2230    0.261308    0.715568    0.813219  0.000380725
2240    0.255146    0.713195   -0.494758  0.000595623
2250    0.249396    0.710981   -0.755817  0.000168219
2260    0.251781    0.711899    -1.54257  1.88619e-05
2270    0.249018    0.710835   -0.364165  -6.74456e-05
2280     0.25313    0.712419   -0.888072  -6.71975e-05
2290    0.250362    0.711353   -0.625991  0.000320253
2300    0.246725    0.709952   0.0288925  0.000342645
2310    0.243509    0.708714    -1.27998  0.000105789
2320    0.244609    0.709138    -1.67291  6.30416e-05
2330    0.242249    0.708229     -3.1134  8.46513e-05
2340    0.242916    0.708486   -0.756968  -0.000175324
2350    0.245755    0.709579     1.07441  0.000106841
2360    0.240779    0.707663    -1.80555  0.000454703
2370    0.236661    0.706077     -2.3283  -0.000110479
2380    0.242989    0.708514   -0.365828  6.44572e-05
2390    0.235372    0.705581    -1.41211  6.36838e-05
2400    0.241715    0.708023    -1.93755  -6.64547e-05
2410    0.236701    0.706093    -1.93653  0.000129759
2420     0.23912    0.707024    -1.28241  0.000196361
2430    0.232774     0.70458    -1.54539  0.000679384
2440    0.225532    0.701792      -1.413  0.000307351
2450    0.226627    0.702214    -1.93627  0.000110556
2460    0.223321    0.700941    -1.15143  8.85129e-05
2470    0.224856    0.701532    0.287777  -4.33974e-05
2480    0.224189    0.701275    -2.85375  0.000199488
2490    0.220867    0.699996    -2.32984  0.000288403
2500    0.218421    0.699054    -1.93729  6.75768e-05
2510    0.219515    0.699475    -1.93691  -6.51389e-05
2520    0.219724    0.699556    -2.06814  -0.000154302
2530    0.222601    0.700664    -2.33035  0.000357289
2540    0.212578    0.696804    -2.59141  0.000357405
2550    0.215453    0.697911     -1.1522  -0.000243226
2560    0.217443    0.698677    -1.15271  9.12063e-05
2570    0.213629    0.697209    -1.54513  0.000359533
2580    0.210252    0.695909   -0.759396  0.000270934
2590     0.20821    0.695122    -1.67623  2.49535e-05
2600    0.209753    0.695716     -1.9387  0.000160061
2610    0.205009     0.69389    -0.49821  0.000272568
2620    0.204302    0.693617    -1.02212  0.000205966
2630     0.20089    0.692304   -0.105536  0.000296585
2640     0.19837    0.691333     -1.5459  -8.64699e-05
2650    0.202619     0.69297    -1.02276  2.68035e-05
2660    0.197834    0.691127    -1.28484  0.000343318
2670    0.195753    0.690326     -1.1545  0.000140332
2680    0.195027    0.690046    -2.46286  0.000254355
2690    0.190666    0.688367    -2.20116  -4.08128e-05
2700    0.195844    0.690361   -0.762593  -0.000290779
2710    0.196481    0.690606     -2.3338  0.000278202
2720    0.190279    0.688218    -1.41594  0.000506854
2730    0.186344    0.686703    -1.41581  0.000188265
2740    0.186514    0.686768    -1.15399  -1.70127e-05
2750    0.186684    0.686834    -2.33291  -0.000177568
2760    0.190066    0.688136     -2.9883  0.000258435
2770    0.181516    0.684844    -1.67905  0.000603231
2780    0.178001     0.68349    -3.11864  -1.64397e-05
2790    0.181845     0.68497    -2.46478  0.000214611
2800    0.173709    0.681838    -1.02429  0.000306732
2810     0.17571    0.682608    -3.38187  0.000308272
2820    0.167543    0.679464    -2.33342  7.44537e-06
2830    0.175561    0.682551    -2.33482  3.17797e-05
2840    0.166908    0.679219    -2.33393  0.000657596
2850    0.162409    0.677487    -1.02493  0.000194705
2860    0.163014    0.677719    -1.81041  -3.72127e-05
2870    0.163153    0.677773    -2.20385  0.000522225
2880    0.152569    0.673698    -1.28624  0.000289448
2890    0.157364    0.675544    -2.20359  5.75542e-05
2900    0.151418    0.673255    -2.72814  0.000220849
2910    0.152947    0.673843    -4.29896  0.000221987
2920    0.146978    0.671545    -2.72775  0.00019859
2930    0.148976    0.672314    -2.72865  0.000199743
2940    0.142983    0.670007    -2.59793  0.000223272
2950     0.14451    0.670595    -2.72929  5.93647e-05
2960    0.141796     0.66955    -1.28829  0.00031903
2970     0.13813    0.668138   -0.110138  0.000130703
2980    0.139182    0.668543    -1.81347  0.00034451
2990    0.131239    0.665485    -2.20564  0.000748014
3000    0.124222    0.662783    -2.07389  0.000227761
3010    0.126684    0.663731   -0.896254  -0.000294185
3020    0.130105    0.665048    -4.30152  -0.000104418
3030    0.128772    0.664535   -0.897149   0.0002766
3040    0.124573    0.662918    -1.55203  0.000492156
3050    0.118929    0.660745    -2.20602  0.000134666
3060     0.12188    0.661881    -4.30114  0.000159635
3070    0.115737    0.659516    -1.55216  0.000567248
3080    0.110535    0.657513   -0.374392  -0.00010373
3090    0.117811    0.660314    -1.16038  -0.000415895
3100    0.118853    0.660715   -0.768217  0.000594423
3110    0.105923    0.655737    0.934735  0.000836418
3120    0.102125    0.654274    -1.29021  -0.000151261
3130    0.108948    0.656902    -1.68467  0.000163714
3140   0.0988504    0.653013    -3.12286  0.000138722
3150    0.106174    0.655833    -1.68569  -0.000393573
3160    0.106722    0.656044    0.409806  0.000358279
3170    0.099008    0.653074    -1.16038  0.00045608
3180   0.0976002    0.652532    -2.60125  0.000336004
3190   0.0922879    0.650487    -1.94675  0.000409951
3200   0.0894012    0.649375    -1.81654   0.0002891
3210   0.0865059     0.64826    -3.25601  0.00019198
3220   0.0855616    0.647897     -3.1258  7.00999e-05
3230   0.0851039     0.64772    -1.42323  9.49062e-05
3240   0.0836635    0.647166    -2.86461  0.000168861
3250   0.0817267     0.64642    -2.07875  9.54792e-05
3260   0.0817539     0.64643    -4.04263  -5.20971e-05
3270   0.0827686    0.646821    -2.99508  0.000417157
3280   0.0734108    0.643218    -2.86385  0.00064032
3290   0.0699622     0.64189    -4.56552  0.000394897
3300   0.0655128    0.640177    -4.56577  7.34206e-05
3310   0.0684938    0.641325    -2.47245  0.000223296
3320   0.0610469    0.638457    -4.56603  0.000372497
3330   0.0610438    0.638456    -2.60279  0.000199712
3340   0.0570527    0.636919    -2.86487  0.000324843
3350    0.054547    0.635954    -1.81718  0.000250919
3360   0.0520343    0.634987    -2.47168  -9.88694e-05
3370   0.0565244    0.636716    -3.38903  0.000227367
3380    0.047487    0.633236    -2.73376  0.000402799
3390   0.0484684    0.633614    -2.21075  7.78168e-05
3400   0.0459306    0.632637    -3.12721  0.000153374
3410   0.0454009    0.632433    -2.99674  0.000229642
3420   0.0413378    0.630868    -3.12784  0.000230083
3430   0.0407992    0.630661    -3.91306  0.000180479
3440   0.0377282    0.629478    -3.78209  0.000282204
3450   0.0351552    0.628488    -3.52077  8.00071e-05
3460   0.0361281    0.628862     -4.0443  0.000131384
3470   0.0325275    0.627476    -4.04379  0.000386065
3480   0.0284068    0.625889    -2.99636  0.000106694
3490   0.0303936    0.626654    -3.78286  -2.02321e-05
3500   0.0288114    0.626045    -3.12784  -2.05572e-05
3510   0.0308047    0.626813     -2.4736  -2.03172e-05
3520   0.0292177    0.626202     -3.1281  0.000184589
3530    0.027113    0.625391    -2.21165  3.09208e-05
3540   0.0285993    0.625963    -2.34313  -2.01778e-05
3550   0.0275165    0.625546    -2.73581  0.000288907
3560   0.0228212    0.623739    -2.60445  0.000625174
3570   0.0150131    0.620732    -2.73517  0.000342428
3580   0.0159726    0.621101     -1.8182  0.000240579
3590   0.0102015    0.618879    -2.07977  3.33047e-05
3600   0.0153065    0.620845    -1.42655  -0.000147623
3610   0.0131539    0.620016    -1.81923  0.000397776
3620  0.00735103    0.617782    -2.34147  0.000372691
3630  0.00570011    0.617146    -2.34237  0.000191477
3640  0.00352149    0.616307    -2.73555  0.000113614
3650  0.00342784    0.616271    -2.47386  -4.29873e-05
3660  0.00438124    0.616638    -2.99738  -0.0003053
3670  0.00953383    0.618622    -2.08118  -0.000253381
3680  0.00944885     0.61859     -3.2601  3.47985e-05
3690  0.00883786    0.618354    -4.04455  0.000430113
3700  0.000846588    0.615277     -2.7353  0.000430903
3710  0.000219813    0.615036    -2.73543  -0.000333751
3720  0.00752162    0.617847    -1.42706  0.000274781
3730  -0.00527581     0.61292    -2.47309  0.000194496
3740  0.00363171     0.61635    -1.42643  -0.000334394
3750  0.00141206    0.615495    -2.21216  0.000514989
3760  -0.00666806    0.612384    -1.16434  0.000249743
3770  -0.00358279    0.613572    -2.99789  -0.000255687
3780  -0.00155432    0.614353    -2.73658  -4.27551e-05
3790  -0.00272769    0.613901    -3.26023  0.000385291
3800  -0.00926015    0.611386    -1.95097  0.000761574
3810  -0.0179592    0.608036    -3.39018  -9.57578e-05
3820  -0.00734499    0.612123    -3.13002  0.000201469
3830  -0.0219885    0.606485    -2.73619  0.00055043
3840  -0.0183536    0.607884    -3.78388  -4.01467e-05
3850  -0.0211856    0.606794     -2.8673  4.03015e-05
3860  -0.0191596    0.607574    -3.65316  0.000122042
3870  -0.0236265    0.605854    -2.73619  0.000176175
3880  -0.0226831    0.606217    -1.42783  -0.00033903
3890  -0.0168459    0.608465     -2.3448  -0.000149233
3900  -0.0196985    0.607366    -1.82025  0.00025845
3910  -0.0220149    0.606474    -2.60585  0.000395849
3920  -0.0276154    0.604318    -2.34313  1.40324e-05
3930  -0.0222955    0.606366     -2.6056  0.00012455
3940  -0.0301064    0.603359    -2.60509  0.000480562
3950  -0.0319067    0.602666    -2.34352  0.000152863
3960  -0.0331637    0.602182    -2.47449  0.000153404
3970  -0.0349748    0.601484    -3.12963  0.000402033
3980  -0.0412044    0.599086    -4.04443  0.000403023
3990  -0.0430353    0.598381    -3.91473  -1.02786e-05
4000  -0.0409988    0.599165    -4.30804  -0.000176291
4010  -0.0395095    0.599738    -3.52154  4.51623e-05
4020   -0.041902    0.598817    -3.26087  0.000239642
4030  -0.0443023    0.597893    -3.12976  0.000184712
4040  -0.0455963    0.597394    -3.39133  0.000241252
4050  -0.0491274    0.596035    -3.26061  0.000716992
4060  -0.0599361    0.591873    -2.73683  0.000606791
4070  -0.0612632    0.591362    -3.78375  7.68648e-05
4080  -0.0614734    0.591281    -3.39197  0.000105301
4090  -0.0633692    0.590551    -3.78401  0.000499439
4100  -0.0714622    0.587435    -4.56923  4.96358e-05
4110  -0.0643619    0.590169    -2.86794  -9.00537e-05
4120  -0.0696611    0.588128    -3.26035  0.000502489
4130  -0.0744117    0.586299    -3.39095  0.000447574
4140  -0.0786126    0.584682     -3.2601  0.000108629
4150  -0.0765843    0.585463    -1.69017  0.000251678
4160  -0.0836462    0.582743    -2.60598  0.000365663
4170  -0.0838975    0.582647    -1.82051  8.22283e-05
4180  -0.0852907     0.58211    -1.16626  0.000396731
4190  -0.0918322    0.579591    -2.21331  0.000369061
4200  -0.0926719    0.579268    -2.47513  -8.79403e-05
4210  -0.0900734    0.580269    -2.60637  0.000400307
4220   -0.100678    0.576185    -2.08233  0.000659531
4230   -0.103264     0.57519     -1.0349  0.000114898
4240   -0.102976      0.5753    -2.08259  -0.00011544
4250   -0.100955    0.576079    -1.42834  -2.89239e-05
4260   -0.102398    0.575523    -2.73785  0.000260377
4270   -0.106163    0.574073    -2.60688  0.000551335
4280   -0.113424    0.571277    -2.08259  0.000233148
4290   -0.110826    0.572278    -2.34531  -0.00031855
4300   -0.107053    0.573731   -0.905842  0.000147275
4310   -0.113771    0.571144    -2.60739  0.000409912
4320   -0.115252    0.570574    -2.86883  1.89617e-06
4330   -0.113809    0.571129    -1.82217  0.000236801
4340   -0.119988     0.56875    -2.47628  0.00026636
4350   -0.119136    0.569078    -2.21471  -5.58585e-05
4360    -0.11887     0.56918    -2.08361  -0.000203536
4370   -0.115066    0.570645    -2.08425  0.000209619
4380   -0.123063    0.567566    -3.78528  0.000446034
4390   -0.123986     0.56721    -4.30894  3.32121e-05
4400   -0.123727     0.56731    -3.52295  -0.000263543
4410   -0.118715     0.56924    -3.26253  -5.57583e-05
4420   -0.122612     0.56774    -3.39338  0.000241283
4430   -0.123541    0.567382    -4.70251  -0.00011592
4440   -0.120293    0.568632    -3.91728  0.00018318
4450   -0.127205    0.565971    -3.78592  0.000272823
4460    -0.12575    0.566531    -3.39312  -0.000295803
4470   -0.121289    0.568249    -4.04801  0.000154519
4480    -0.12884    0.565341     -5.2259  0.000214217
4490   -0.125573      0.5666    -3.91767  0.000397079
4500   -0.136782    0.562284    -4.30945  0.000366963
4510   -0.132912    0.563774    -4.70327  -0.00029677
4520   -0.130846    0.564569     -4.3106  -0.000176632
4530    -0.12938    0.565134    -3.65597  0.000126702
4540    -0.13338    0.563593    -4.44132  0.000400833
4550   -0.137396    0.562047    -3.52461  0.00021924
4560   -0.137765    0.561905    -3.78733  0.000312072
4570   -0.143638    0.559644    -4.17911  0.000312699
4580   -0.144019    0.559497    -3.13245  7.5236e-06
4590   -0.143788    0.559586    -4.18013  0.000253528
4600    -0.14909    0.557544    -5.09607  0.000531165
4610   -0.154411    0.555495    -5.09595  -5.31264e-05
4620   -0.148027    0.557954    -3.78759  -0.000175904
4630   -0.150893     0.55685    -4.31137  0.000132298
4640   -0.150673    0.556935    -3.52614  0.00041235
4650    -0.15914    0.553674    -4.70314  0.000319797
4660   -0.157069    0.554472    -4.70366  4.16875e-05
4670   -0.159974    0.553353    -4.70302  1.01782e-05
4680   -0.157273    0.554394    -5.09633  0.00022958
4690   -0.164566    0.551585    -4.31073  0.000260818
4700   -0.162489    0.552385    -3.91805  -0.000113907
4710   -0.162288    0.552463    -4.18039  0.000168505
4720   -0.165859    0.551087    -4.04954  -0.000114721
4730   -0.159993    0.553346    -3.13334  1.19425e-05
4740   -0.166098    0.550995    -3.39491  0.000643277
4750   -0.172859    0.548392    -3.00185  0.000297181
4760   -0.172042    0.548707    -3.13296  4.50931e-05
4770   -0.173761    0.548045    -3.13283  0.000204047
4780   -0.176123    0.547135    -3.00198  -1.82584e-05
4790   -0.173395    0.548186    -3.39466  -4.97833e-05
4800   -0.175127    0.547519    -3.65635  -8.23915e-05
4810   -0.171748     0.54882    -2.34761  -5.01543e-05
4820   -0.174124    0.547905    -2.74028  1.32821e-05
4830   -0.172013    0.548718    -2.34774  -0.000243597
4840   -0.169252    0.549781     -2.4791  0.000367992
4850   -0.179373    0.545884    -2.60931  0.000206678
4860   -0.173385    0.548189    -3.00249  -1.74612e-05
4870   -0.179024    0.546018    -3.52563  0.00020828
4880   -0.177551    0.546585    -2.87139  0.000177328
4890    -0.18257    0.544653    -3.39491  0.000340121
4900   -0.184353    0.543966    -2.87126  0.000341778
4910   -0.189406    0.542021    -3.52538  0.000146741
4920   -0.187288    0.542836    -2.34799   4.979e-05
4930   -0.190402    0.541637    -2.60982  0.000246321
4940   -0.192215    0.540939    -2.08553  1.73144e-05
4950   -0.190748    0.541504    -2.87126  -0.000212854
4960   -0.187958    0.542578    -2.21727  -4.85756e-05
4970   -0.189777    0.541878     -2.0863  4.99994e-05
4980   -0.188958    0.542193    -1.82498  0.000315578
4990   -0.196088    0.539448    -1.03938  0.000581157
