Time   Number   
ps   
0           8          10
10           6          12
20           8          12
30           8          10
40           6          10
50           8           8
60           8           8
70           6           8
80           7           9
90           8          10
100           8          10
110           8          10
120           7           9
130          10          10
140           7          11
150           9          11
160           8          10
170           8          10
180           8          10
190           8          12
200           8          10
210           7          11
220           8          12
230           8          10
240           8          10
250           9           9
260           6          12
270           8          10
280           8           8
290           8          10
300           9           9
310           7           9
320           9           9
330           7           9
340           8          10
350           8           8
360           8          10
370           8          10
380           8          10
390           8           8
400           8          10
410           8           8
420           9           9
430           8          10
440           8           8
450           9           9
460           8          10
470           9           9
480           9           9
490           7           9
500           8          10
510           8          10
520           8          10
530           8          10
540           9           9
550           7           9
560           9           9
570           8          10
580           9           9
590           8          10
600           8          10
610           8          10
620           7           9
630           7          11
640           8          10
650           8          10
660           8           8
670           8          10
680           8          10
690           9           9
700           9           9
710           8           8
720           8          10
730           7          11
740           8          10
750           9           9
760           8           8
770           8          10
780           8          10
790           7          11
800           8          10
810           6          10
820           7           9
830           7           7
840           8          10
850           8          10
860           9           9
870           8          10
880           7          11
890           9           9
900           9           9
910           7          11
920           8          10
930           8          10
940           9           9
950           8          10
960           6          10
970           8          10
980           8          10
990           8          10
1000           9           9
1010           8           8
1020           7          11
1030           8          10
1040           8          10
1050           8          10
1060           8           8
1070           8          10
1080           8           8
1090           9          11
1100           9          11
1110           9           9
1120           8          10
1130          10          10
1140           8          10
1150           9          11
1160           9           9
1170          10          10
1180          10          10
1190           7          11
1200           8          12
1210           9          11
1220           8          12
1230           8          12
1240           8           8
1250           8          12
1260           9          11
1270          10          10
1280           8          10
1290           9          11
1300           9          11
1310          10          10
1320           8          12
1330           8          12
1340          10          10
1350           8          10
1360           8          12
1370           9          11
1380           9           9
1390           9          11
1400          10          10
1410           8          12
1420           7           7
1430           8          10
1440          10          10
1450          10          10
1460           8          12
1470           9           9
1480           7          11
1490           7          11
1500           7          11
1510           8          10
1520           8           8
1530           8          12
1540           7          11
1550           8          12
1560           9           9
1570           8          10
1580           8          10
1590           9           9
1600           9           9
1610           8          10
1620           8          10
1630           8          10
1640           8          10
1650           8           8
1660           9           9
1670           8          10
1680           9           9
1690           7          11
1700           8          10
1710           7          11
1720           7          11
1730           8           8
1740           7           9
1750           7           9
1760           7           9
1770           8           8
1780           8           8
1790           7           9
1800           8           8
1810           8           8
1820           9           9
1830           9           9
1840           6          10
1850           9          11
1860           7          11
1870           8          10
1880           8           8
1890           7          13
1900           8          10
1910           7          11
1920           8          10
1930           8          10
1940           8          10
1950           8           8
1960           6          12
1970           8          10
1980           9           9
1990           8          10
2000           8          10
2010           8          10
2020           8          10
2030          10          12
2040           9           9
2050          11          11
2060           8          12
2070           8          10
2080           7          13
2090           9          11
2100           7          11
2110           8          10
2120           6           8
2130           7           9
2140           8           8
2150           6           8
2160           8          10
2170           8          10
2180           9           9
2190           7           9
2200           5          13
2210           8           8
2220           7           9
2230           7           9
2240           8           8
2250           8           8
2260           8           8
2270           9           9
2280           9          11
2290           9           9
2300           7           9
2310           9          11
2320           9          11
2330           9          11
2340           9          11
2350           9          11
2360           7          11
2370           7          13
2380           9           9
2390           9           9
2400           8          12
2410          10          10
2420           9          11
2430           8          12
2440           8          10
2450          10          10
2460           9           9
2470           9          11
2480           8          12
2490          10          10
2500           9           9
2510           9           9
2520           9           9
2530           8           8
2540           8          10
2550           8          10
2560           8          10
2570           8          10
2580           7           7
2590           7          11
2600           6          12
2610           7           9
2620           7          11
2630           7           7
2640           7           7
2650           8          10
2660           8          10
2670           8          10
2680           9           9
2690           7          11
2700           7           9
2710           9           9
2720           9          11
2730          10          10
2740           9          11
2750           8          12
2760           9          11
2770           8          10
2780           8          10
2790           9          11
2800          11          11
2810           9          11
2820           9           9
2830           9          11
2840          10          10
2850          10          10
2860           9          13
2870           9          11
2880          10          10
2890           9           9
2900           7          13
2910          10          12
2920          10          12
2930           8          14
2940          10          12
2950          10          12
2960          10          12
2970           8          12
2980          10          12
2990          11          11
3000           9          11
3010           9          11
3020          10          12
3030           8          12
3040           9          11
3050           9          11
3060           9          11
3070           9          13
3080           7          13
3090          10          12
3100           9          11
3110           8           8
3120           9           9
3130           9          11
3140          10          10
3150           9          11
3160           8          12
3170           9          13
3180          10          10
3190          10          12
3200          10          12
3210          10          12
3220          10          10
3230          10          12
3240          10          12
3250           9          11
3260           8          12
3270          10          10
3280           9          11
3290          11          11
3300           9          11
3310           9          13
3320           8          14
3330           9           9
3340           9          11
3350           9          11
3360          10          12
3370           9           9
3380           9           9
3390           9           9
3400           7           9
3410           7           7
3420           9           9
3430           7          11
3440           9           9
3450           9           9
3460           8           8
3470           8          10
3480           8          10
3490           8          10
3500           8           8
3510           7          11
3520           8           8
3530           7           9
3540           9           9
3550           8           8
3560           8           8
3570           8          10
3580           7           9
3590           8          10
3600           8           8
3610           8          10
3620           9           9
3630           8          10
3640           8          10
3650           7           9
3660           7           7
3670           7           9
3680           8          10
3690           9           9
3700           9           9
3710           8          10
3720           8          10
3730           9           9
3740           8           8
3750           8          10
3760           8           8
3770          10          10
3780           8          10
3790           9           9
3800           8          10
3810           7           9
3820           8          10
3830           8          10
3840           9           9
3850           8           8
3860           8           8
3870           7           9
3880           8           8
3890           8           8
3900           7           7
3910           8           8
3920           8           8
3930           8           8
3940           8           8
3950           9           9
3960           9           9
3970           7           9
3980           9           9
3990           6           8
4000           7          11
4010           8           8
4020           8           8
4030           7           9
4040           9           9
4050           8           8
4060           8           8
4070           7           7
4080           6           6
4090           6           8
4100           7           7
4110           8           8
4120           6           8
4130           7           9
4140           7           9
4150           7          11
4160           8           8
4170           9           9
4180           9          11
4190           7           9
4200           8           8
4210           9           9
4220           9           9
4230          10          10
4240           8           8
4250          10          10
4260          10          10
4270           9           9
4280           8          10
4290           7           9
4300           9          11
4310          10          10
4320           9          11
4330           9           9
4340           7           7
4350           8           8
4360           9           9
4370           8           8
4380           9           9
4390           9           9
4400           8          10
4410           8           8
4420           9           9
4430           9           9
4440           8           8
4450           7           9
4460           8           8
4470           7           7
4480           8           8
4490           9           9
4500           9           9
4510           7           9
4520           6           8
4530           8          10
4540           7           7
4550           9          11
4560          10          10
4570           9           9
4580           9           9
4590           8          10
4600           7          11
4610           8           8
4620           9           9
4630           7          11
4640           7           7
4650           7           9
4660           7           7
4670           8           8
4680           8          10
4690           8           8
4700           9           9
4710           9           9
4720           6           8
4730           8          10
4740           8           8
4750           6           6
4760           7           9
4770           7           9
4780           8           8
4790           8           8
4800           8           8
4810           6           8
4820           9           9
4830           6          10
4840           9           9
4850           7           7
4860           8           8
4870           8           8
4880           8           8
4890           7           7
4900           8           8
4910           8           8
4920           8          10
4930           8          10
4940           7           7
4950           7           9
4960           7           9
4970           8          10
4980           8          10
4990           9           9
5000           9           9
5010           9           9
5020           8           8
5030           8          10
5040           7           9
5050           8          10
5060           8          10
5070           8           8
5080           9           9
5090           9           9
5100           8          10
5110           8          10
5120           9           9
5130           8          12
5140           8           8
5150           9          11
5160           9          11
5170           8          10
5180           9          11
5190           9           9
5200          10          10
5210          10          10
5220           7          11
5230           9          11
5240           9          11
5250           9          11
5260           8           8
5270           8           8
5280           9          11
5290           9           9
5300          10          10
5310          10          10
5320           9           9
5330           8          10
5340           8           8
5350           8          10
5360           9           9
5370          10          10
5380           8          10
5390           8          10
5400           7           7
5410           9          11
5420           8          10
5430           8          12
5440           8           8
5450           6          10
5460           9           9
5470           9          11
5480           9           9
5490           9           9
5500           7           7
5510           8          10
5520           9           9
5530           8           8
5540           8           8
5550           7           9
5560           7           9
5570           7           7
5580           7           9
5590           9           9
5600           8           8
5610           8           8
5620           8           8
5630           9          11
5640           8           8
5650           7           9
5660           9           9
5670           6           8
5680           8          10
5690           7           7
5700           8          12
5710           7           9
5720           7          11
5730           7           9
5740           9          11
5750           9           9
5760           8          10
5770           8          10
5780          10          10
5790           7          13
5800           7          11
5810           9          13
5820           8          10
5830           7           9
5840           9           9
5850           9           9
5860           8           8
5870           8           8
5880           7           9
5890           7           7
5900           7           7
5910           7           9
5920           6           8
5930           7           9
5940           7          11
5950           8          10
5960           8          12
5970           9           9
5980           6           6
5990           8           8
6000           8          10
6010           8          10
6020           9          11
6030           7          11
6040           6           8
6050           8           8
6060           7           7
6070           8           8
6080           8          10
6090           6           6
6100           8          10
6110           6          10
6120           8           8
6130           7          11
6140           7           9
6150           9           9
6160           8           8
6170           8           8
6180           8           8
6190           7           7
6200           7           7
6210           6           8
6220           8           8
6230           9           9
6240           8           8
6250           7           7
6260           7           9
6270           7           9
6280           7           7
6290           8           8
6300           8           8
6310           7           7
6320           8           8
6330           7          11
6340           6           8
6350           6           8
6360           7           9
6370           8           8
6380           8           8
6390           7           9
6400           8           8
6410           8           8
6420           7           7
6430           6           8
6440           8           8
6450           8           8
6460           8           8
6470           6          10
6480           8          10
6490           9           9
6500           8          10
6510           8          10
6520           7           9
6530           9           9
6540           9          11
6550           6           8
6560           8          10
6570           9           9
6580           7          11
6590           8           8
6600           8          10
6610           7          11
6620           7           7
6630           7           9
6640           6          10
6650           9           9
6660           9           9
6670           8           8
6680           7          11
6690           7           7
6700           8           8
6710           7          11
6720           7          11
6730           9           9
6740           7           9
6750           9           9
6760          10          10
6770           6           8
6780           9          11
6790           8          12
6800           9           9
6810           9          11
6820           6          10
6830           9          11
6840           9           9
6850           9           9
6860          10          10
6870           9           9
6880           9          11
6890           7          11
6900           9           9
6910           8          12
6920           8          10
6930           9          11
6940           8          12
6950           8          12
6960           9          11
6970           9           9
6980          10          10
6990          10          10
7000           8          10
7010           9           9
7020           8           8
7030           7           9
7040           6           8
7050           7           7
7060           6          14
7070           9          11
7080           6          12
7090           7           7
7100           5           9
7110           7          11
7120           8          10
7130           8           8
7140           9           9
7150           9           9
7160           7           9
7170           6          10
7180           8           8
7190           6          14
7200           9           9
7210          10          10
7220           8          10
7230           8          10
7240           8          12
7250           9           9
7260          10          12
7270           7           9
7280           9           9
7290           8          10
7300           8          10
7310           8          10
7320           8           8
7330           9          11
7340           7          11
7350           9          11
7360           6           8
7370           5           9
7380           8           8
7390           6          10
7400           7           9
7410           7          11
7420           7          13
7430           8           8
7440           8           8
7450           7           7
7460           6          10
7470           7           9
7480           8           8
7490           6          10
7500           8           8
7510           7           9
7520           8           8
7530           8          10
7540           8          10
7550           7           9
7560           7          11
7570           7           9
7580           7           9
7590           8          10
7600           6          10
7610           7          11
7620           6          12
7630           7          11
7640           5           9
7650           8           8
7660           7          11
7670           7          11
7680           9          11
7690           7          13
7700           8           8
7710           8          10
7720           8          10
7730           8          12
7740           7          11
7750           9          11
7760           8          12
7770           9          15
7780          10          12
7790          10          10
7800          10          12
7810          10          12
7820           9          13
7830          10          10
7840           9          11
7850           9           9
7860           8          10
7870           7           7
7880           7          11
7890          10          10
7900           8          10
7910           7          11
7920           6           8
7930           8          12
7940           8          12
7950           7           9
7960           9          11
7970           9          11
7980           9           9
7990           9           9
8000           8          10
8010           6           8
8020           7          11
8030           7           7
8040           8          10
8050           9          11
8060           9          11
8070           7           7
8080           7           7
8090           7           7
8100           8           8
8110           7           9
8120           4           8
8130           7           7
8140           6           6
8150           8          10
8160           8           8
8170           6           8
8180           7           7
8190           6           6
8200           7           7
8210           6           6
8220           7           9
8230           7           9
8240           7          11
8250           6           8
8260           7           7
8270           6           8
8280           7           7
8290           7           7
8300           8           8
8310           9           9
8320           8           8
8330           9          11
8340           9           9
8350          10          10
8360           8          10
8370           8          10
8380           7           7
8390           6           8
8400           7           9
8410           7           9
8420           7           9
8430           8           8
8440           8           8
8450           8           8
8460           7           7
8470           7           7
8480           6           6
8490           6          10
8500           7           7
8510           8           8
8520           8           8
8530           8           8
8540           7           9
8550           8           8
8560           9           9
8570           9           9
8580           7           7
8590           9           9
8600           8          10
8610           7           9
8620           8           8
8630           8          10
8640           7           9
8650           5          11
8660           9           9
8670           8           8
8680           9           9
8690           9           9
8700           9           9
8710           7           9
8720           8           8
8730           8           8
8740           8          10
8750           9           9
8760           8           8
8770           8          10
8780           7          11
8790           8           8
8800           8          10
8810           8           8
8820           6          10
8830           6           8
8840           8           8
8850           7           9
8860           7           7
8870           7           9
8880           7           7
8890           7          13
8900           7           9
8910           9           9
8920           7          11
8930           7          11
8940           8          10
8950           8           8
8960           8          10
8970           7           9
8980           6          10
8990           8          10
9000           7           7
9010           8           8
9020           8          10
9030           9           9
9040           6           8
9050           8          12
9060           9          11
9070           6           6
9080           8           8
9090           6          10
9100           9          11
9110           8           8
9120           7           7
9130           7           9
9140           6           8
9150           7           7
9160           6           6
9170           6           6
9180           6           6
9190           5           7
9200           6           6
9210           6           6
9220           4           8
9230           5           5
9240           5           5
9250           5           5
9260           6           6
9270           7           7
9280           4           6
9290           5           7
9300           4           4
9310           7           9
9320           5           9
9330           5           7
9340           6           6
9350           6           6
9360           7           7
9370           5           9
9380           7          11
9390           7           9
9400           6          12
9410           7           9
9420           6           8
9430           5           5
9440           5           9
9450           6           6
9460           7           9
9470           5          13
9480           7           7
9490           7           7
9500           7          11
9510           7           9
9520           8          10
9530           6          10
9540           6          10
9550           6           8
9560           8           8
9570           7          13
9580           7           9
9590           7          11
9600           6          12
9610           5           9
9620           3           7
9630           4           8
9640           5           5
9650           5           5
9660           4           8
9670           5           5
9680           6           6
9690           7           9
9700           5           9
9710           6          10
9720           5           7
9730           5           9
9740           6          10
9750           6           8
9760           5          11
9770           8           8
9780           5           9
9790           6          10
9800           6           6
9810           5           7
9820           7           7
9830           5           7
9840           4           8
9850           7           9
9860           7           9
9870           5          11
9880           5          13
9890           7           9
9900           7           7
9910           6          12
9920           8           8
9930           5           9
9940           6           8
9950           7           7
9960           8           8
9970           4           8
9980           6           8
9990           6           6
10000           6           6
