Time   C(t)   
ps   
0           1           1  4.5701e-11   0.0188417
10    0.815913    0.835404    0.514929   0.0110911
20    0.778177    0.801663    0.630528   0.0033406
30    0.749102    0.775666     1.40398  0.00260919
40    0.725994    0.755005     1.90543  0.00221758
50     0.70475     0.73601     1.28536  0.00205629
60    0.684868    0.718233     0.51028  0.00179437
70    0.668863    0.703923     0.70302  0.00155321
80    0.653804    0.690458     1.01276  0.00156283
90    0.637606    0.675976     2.25094  0.00157227
100    0.622358    0.662342       2.598  0.00148147
110    0.607977    0.649483     1.82296  0.00133479
120    0.595662    0.638473     1.70646  0.00132476
130    0.581481    0.625793     2.28664  0.00128447
140    0.569973    0.615503     2.40186  0.00113271
150    0.558827    0.605538     1.23964  0.00111137
160    0.547746    0.595629     1.16197  0.00110505
170    0.536726    0.585777     1.47179  0.00103848
180    0.526976    0.577059     1.50971  0.000997552
190    0.516775    0.567938     2.28298  0.00097582
200     0.50746    0.559609    0.579711  0.00086129
210    0.499549    0.552536     2.47579  0.000815591
220    0.491148    0.545024     1.46895  0.000888588
230    0.481778    0.536646    0.849138  0.000842737
240    0.474293    0.529954     1.27466  0.000838088
250    0.465016    0.521659     2.35891  0.000752886
260    0.459235     0.51649     2.20311  0.000622106
270    0.452574    0.510534    0.809056  0.00067554
280    0.445725     0.50441     1.38875  0.000700875
290    0.438556    0.498001    0.730176  0.000774211
300     0.43024    0.490565    0.305031  0.000764823
310     0.42326    0.484324     1.61994  0.000637636
320    0.417488    0.479163     1.85137  0.000678374
330    0.409692    0.472193    0.652733  0.000703752
340    0.403413    0.466578      1.1166  0.000602336
350    0.397646    0.461422    0.496145  0.000502761
360    0.393357    0.457587     1.03795  0.000490719
370    0.387831    0.452646   -0.239984  0.000586127
380    0.381635    0.447106    0.805125  0.000472966
390    0.378372    0.444189    0.688015  0.000445499
400    0.372725    0.439139     2.08181  0.000591744
410    0.366537    0.433607     2.35226  0.000579707
420    0.361131    0.428773     1.30722  0.000461715
430    0.357303     0.42535     1.26778  0.000447284
440    0.352185    0.420774    0.454551  0.000430425
450    0.348694    0.417653     1.61586  0.000382693
460    0.344531    0.413931    0.725036  0.000394548
470    0.340803    0.410598     0.45387  0.000319912
480    0.338133     0.40821    0.802064  0.000396219
490    0.332879    0.403512    0.956762  0.000441396
500    0.329305    0.400317    0.298756  0.00045131
510    0.323853    0.395442     1.69183  0.00048563
520    0.319593    0.391633     1.88495  0.000352809
530    0.316797    0.389133     1.14977  0.000266485
540    0.314263    0.386867    0.491307  0.000231287
550    0.312171    0.384997      2.1937  0.000296724
560    0.308328    0.381561    0.723411  0.000411564
570     0.30394    0.377637     1.53615  0.000421391
580    0.299901    0.374025     2.27141  0.000253834
590    0.298863    0.373098     1.88355  0.000232056
600    0.295259    0.369876     1.65156  0.000281948
610    0.293224    0.368056      1.2257  0.000235304
620    0.290553    0.365668     1.30273  0.00021999
630    0.288824    0.364122     1.76652  0.000249857
640    0.285556      0.3612    0.837951  0.000318117
650    0.282462    0.358433     1.88238  0.000343719
660    0.278682    0.355053     1.57257  0.000299083
670     0.27648    0.353085     1.41738  0.000274882
680    0.273184    0.350138     2.65606  0.000361691
690    0.269246    0.346617     2.73343  0.000344239
700    0.266299    0.343982     2.03715  0.000274523
710    0.263756    0.341708     1.64971  0.000243233
720    0.261435    0.339632     1.76542  0.000271133
730    0.258333    0.336859     3.08136  0.000214618
740    0.257142    0.335794     2.65492  0.000146632
750    0.255401    0.334237     1.41617  0.000192673
760    0.253289    0.332349     2.15158  0.000220557
770    0.250989    0.330293     2.07349  0.000296663
780    0.247356    0.327044      2.2668  0.000306416
790    0.244861    0.324814     1.60849  0.000364569
800    0.240064    0.320525     1.60932  0.000392828
810    0.237005    0.317789     1.41541  0.000271777
820    0.234629    0.315664     1.64771  0.000217088
830    0.232663    0.313907      2.4994  0.000240656
840    0.229816    0.311361     1.84113  0.000340455
850    0.225854    0.307819     2.38285  0.000248634
860    0.224843    0.306915     1.72432  0.000115078
870    0.223552    0.305761     1.64703  0.000208013
880    0.220683    0.303195     2.38263  0.000277999
890    0.217992    0.300789     2.46003  0.000215905
900    0.216365    0.299334     2.26638  0.000211786
910    0.213756    0.297002     2.11123  0.000167969
920    0.213005     0.29633      1.7242  0.00010785
930    0.211599    0.295074     1.95601  0.000150056
940    0.210004    0.293647     2.14954  0.000215752
950    0.207284    0.291215     1.91732  0.000265269
960    0.204699    0.288903     2.49792  0.000240128
970    0.202482    0.286921     1.53033  0.000146957
980     0.20176    0.286275     2.30409  0.000217732
990    0.198127    0.283028     1.64657  0.00026032
1000    0.196553     0.28162     1.72356  9.40926e-05
1010    0.196245    0.281345     1.52939  8.73119e-05
1020    0.194807    0.280059     1.68401  0.000195833
1030    0.192329    0.277843     1.60634  0.00013252
1040    0.192156    0.277689      1.4122  0.000111701
1050    0.190095    0.275846     1.79938  0.000277327
1060     0.18661     0.27273     1.79983  0.000301537
1070    0.184064    0.270453     1.21878  0.000205131
1080    0.182507    0.269062    0.521411  0.000193781
1090    0.180188    0.266988     0.63735  0.00024166
1100    0.177674     0.26474     1.21825  0.000242199
1110    0.175344    0.262657     1.17953  0.000166587
1120    0.174342    0.261761    0.521827  0.000176562
1130    0.171813      0.2595    0.173255  0.000226977
1140    0.169803    0.257702      0.4825  0.000131996
1150    0.169173    0.257139    0.598817  0.000158676
1160    0.166629    0.254865     1.10212  0.000168502
1170    0.165803    0.254126    0.520958  4.4357e-05
1180    0.165742    0.254072    0.289005  0.000135662
1190     0.16309      0.2517    0.211184  0.000231908
1200    0.161104    0.249924    0.598099  0.000141107
1210    0.160268    0.249177    0.326895  0.000165562
1220    0.157793    0.246964   0.0562587  0.000233319
1230    0.155601    0.245004    0.559642  0.000171139
1240     0.15437    0.243903     1.06246  8.22112e-05
1250    0.153957    0.243534    0.364975  8.48666e-05
1260    0.152673    0.242386    0.210806  0.000189114
1270    0.150175    0.240152    0.249452  0.000206444
1280    0.148544    0.238694   -0.950355  0.000165717
1290    0.146861    0.237189    0.017197  0.000139372
1300    0.145756    0.236202    0.171819  0.000164055
1310    0.143579    0.234255   -0.369983  0.000183846
1320    0.142079    0.232914   -0.215322  0.000111171
1330    0.141356    0.232267    0.403394  0.000140759
1340    0.139264    0.230397    0.829258  0.00020698
1350    0.137216    0.228566     1.06197  0.000180553
1360    0.135653    0.227168       1.797  0.000188351
1370    0.133449    0.225198      1.5649  0.000164226
1380    0.132369    0.224232     1.56497  9.34854e-05
1390     0.13158    0.223526    0.519597  7.89799e-05
1400    0.130789    0.222819     1.17775  9.39235e-05
1410    0.129701    0.221847     1.13884  0.000101515
1420    0.128759    0.221004      1.0611  9.92894e-05
1430    0.127715    0.220071     1.33226  7.97607e-05
1440    0.127164    0.219578      1.4867  -4.06951e-06
1450    0.127797    0.220144     2.22146  9.25168e-05
1460    0.125313    0.217923     3.22838  0.000156973
1470    0.124657    0.217337     2.84113  9.04728e-05
1480    0.123504    0.216305     2.33797  3.60131e-05
1490    0.123937    0.216693     1.67936  5.85657e-05
1500    0.122332    0.215258     1.68008  0.000135762
1510    0.121222    0.214265     1.48628  0.000143586
1520    0.119461     0.21269     0.75068  0.000131405
1530    0.118594    0.211915     1.40876  2.68418e-05
1540    0.118924     0.21221      1.9495  0.000162049
1550    0.115353    0.209017     1.25338  0.000187245
1560    0.115179    0.208862     1.71744  4.99956e-05
1570    0.114353    0.208123     1.91075  5.25843e-05
1580    0.114127    0.207922     1.40736  0.000140703
1590    0.111539    0.205607    0.943269  0.000143411
1600    0.111259    0.205357     2.06571  0.000118701
1610    0.109165    0.203484     2.02668  0.000234903
1620    0.106561    0.201156     2.53029  0.000164724
1630     0.10587    0.200539      1.6001  0.00016017
1640    0.103358    0.198292     1.71721  0.000178167
1650    0.102307    0.197353     1.67792  6.97084e-05
1660    0.101963    0.197046     1.94841  9.52911e-05
1670    0.100401    0.195649     2.56754  7.7673e-05
1680     0.10041    0.195657     1.56127  6.77779e-05
1690   0.0990456    0.194437      1.3289  0.000195177
1700   0.0965064    0.192166      1.4842  0.000180284
1710   0.0954399    0.191213      1.3289  0.000175697
1720   0.0929925    0.189024    0.710031  0.000201596
1730    0.091408    0.187608    0.825969  0.000204694
1740   0.0888986    0.185364    0.903186  0.000266628
1750   0.0860755     0.18284    0.903224  0.000149265
1760   0.0859133    0.182695    0.670856   2.908e-05
1770   0.0854939     0.18232     1.63784  0.000101132
1780   0.0838907    0.180886     1.59957  0.000114181
1790   0.0832102    0.180278      1.3672  6.55461e-05
1800   0.0825797    0.179714     1.32856  6.31187e-05
1810   0.0819479    0.179149     1.79288  4.0016e-05
1820   0.0817794    0.178999    0.979798  3.93391e-06
1830   0.0818692    0.179079     1.13434  2.2094e-05
1840   0.0813375    0.178604      1.5604  8.17526e-05
1850   0.0802341    0.177617     1.48333  0.000126058
1860   0.0788164    0.176349      1.5219  3.79629e-05
1870   0.0794749    0.176938     0.70867  6.94953e-06
1880   0.0786774    0.176225    0.670213  9.80858e-05
1890   0.0775132    0.175184    0.747921  9.56938e-05
1900   0.0767635    0.174514     1.75435  2.80309e-05
1910   0.0769525    0.174683    0.980063  1.24652e-05
1920   0.0765142    0.174291    0.631605  8.31734e-05
1930   0.0752891    0.173195     0.63134  0.000101684
1940   0.0744805    0.172472    0.592543  6.25778e-05
1950   0.0740375    0.172076    0.553557  8.90505e-05
1960   0.0726995     0.17088     1.17307  7.07876e-05
1970   0.0726218    0.170811    0.747619  2.36053e-05
1980   0.0722274    0.170458    0.825062  1.83731e-05
1990   0.0722543    0.170482     1.17341  3.42913e-05
2000   0.0715416    0.169845    0.901863  0.000158658
2010   0.0690811    0.167645    0.824835  0.000166895
2020   0.0682037     0.16686     1.52118  4.2773e-05
2030   0.0682257     0.16688    0.360061  1.37273e-05
2040   0.0679291    0.166615    0.669835  7.22308e-05
2050   0.0667811    0.165588    0.476642  0.000125603
2060   0.0654171    0.164369    0.708481  7.52624e-05
2070   0.0652758    0.164242    0.631227  3.81652e-05
2080   0.0646538    0.163686     0.70833  0.000139767
2090   0.0624805    0.161743    0.902204  3.30105e-05
2100   0.0639936    0.163096    0.436975  -6.85472e-06
2110   0.0626176    0.161866  -0.0275718  0.000140469
2120   0.0611842    0.160584   -0.375652  2.53445e-05
2130   0.0621107    0.161412   0.0881398  4.97486e-05
2140   0.0601892    0.159694     1.01746  0.00017355
2150   0.0586397    0.158309    0.475546  5.27002e-05
2160   0.0591352    0.158752   -0.182421  7.99587e-05
2170   0.0570405    0.156879    0.475697  0.000144872
2180   0.0562378    0.156161    0.514419  3.97827e-05
2190   0.0562449    0.156168    0.436862  2.90925e-05
2200   0.0556559    0.155641    0.242876  5.08327e-05
2210   0.0552282    0.155259    0.397801  8.3576e-05
2220   0.0539844    0.154146    0.513814  9.73394e-05
2230   0.0532814    0.153518   0.0489645   5.023e-06
2240    0.053884    0.154057    0.319752  -4.12427e-05
2250   0.0541063    0.154255  -0.0286301  -2.77266e-05
2260   0.0544385    0.154552    0.358171  -1.13809e-05
2270   0.0543339    0.154459    0.629337  2.96315e-05
2280   0.0538459    0.154023   -0.105998  4.33842e-05
2290   0.0534662    0.153683    0.706818  6.82086e-05
2300   0.0524817    0.152803    0.706969  7.88029e-06
2310   0.0533086    0.153542     0.51355  -0.00011032
2320   0.0546881    0.154776    0.590464  1.06802e-05
2330    0.053095    0.153351    0.513739  2.15502e-05
2340   0.0542571     0.15439     0.43603  -0.000102541
2350   0.0551458    0.155185    0.474639  -7.79312e-05
2360   0.0558157    0.155784    0.861327  -1.72082e-05
2370     0.05549    0.155493    0.822757  3.81604e-05
2380   0.0550525    0.155101    0.397309  1.6029e-05
2390   0.0551694    0.155206    0.629072  -6.13965e-06
2400   0.0551753    0.155211    0.745087  -8.94442e-06
2410   0.0553483    0.155366    0.745313  1.05627e-05
2420   0.0549641    0.155022     0.24212  -6.18212e-07
2430   0.0553607    0.155377   0.0484355  -3.69154e-05
2440   0.0557024    0.155683    0.590351  1.33758e-05
2450   0.0550931    0.155138    0.357907  1.33475e-05
2460   0.0554354    0.155444    0.628846  7.83373e-06
2470   0.0549365    0.154998    0.203284  3.59045e-05
2480   0.0547173    0.154802    0.861063  6.41603e-05
2490   0.0536533     0.15385    0.628808  6.99127e-05
2500   0.0533191    0.153552    0.319185  3.9106e-05
2510   0.0528711    0.153151     0.47411  1.3775e-05
2520   0.0530436    0.153305   -0.106527  -3.42462e-05
2530   0.0535561    0.153763    0.357756  1.38475e-05
2540   0.0527666    0.153058    0.667152  7.90469e-05
2550   0.0519751     0.15235     0.31892  0.000101986
2560   0.0507269    0.151234    0.473883  0.000110766
2570   0.0497598    0.150369    0.705873  8.82957e-05
2580    0.048961    0.149655    0.434934  2.86475e-05
2590   0.0491869    0.149857   -0.300552  -5.48307e-06
2600   0.0490706    0.149753  -0.0296506  6.59795e-05
2610   0.0478673    0.148677  -0.0685615  6.89551e-05
2620   0.0476915     0.14852    0.125009  7.49439e-05
2630   0.0463684    0.147337    0.163996  9.01539e-06
2640   0.0475112    0.148359    0.279405  2.07171e-05
2650    0.045954    0.146966   -0.300854  0.000104095
2660   0.0454293    0.146497   0.0863632  3.23607e-05
2670   0.0453068    0.146388    0.511811  3.82518e-05
2680   0.0446643    0.145813   0.0474524  5.56666e-05
2690   0.0441935    0.145392    0.124745  6.7416e-05
2700    0.043316    0.144608    0.241061  6.17731e-05
2710    0.042958    0.144288    0.279405  0.000128752
2720    0.040741    0.142305    0.163844  0.000123164
2730   0.0404948    0.142085   0.0089577  1.88364e-05
2740   0.0403642    0.141968   -0.494047  2.76433e-05
2750   0.0399419    0.141591   -0.494123  2.76968e-05
2760   0.0398103    0.141473   -0.649425  2.48685e-05
2770   0.0394445    0.141146   -0.920251  3.66304e-05
2780   0.0390777    0.140818   -0.184689  2.50101e-05
2790   0.0389443    0.140699   -0.107624  4.56464e-05
2800   0.0381648    0.140002   -0.804237  8.68799e-05
2810   0.0372067    0.139145   -0.455779  8.71059e-05
2820   0.0364226    0.138444   -0.146232  0.000110944
2830   0.0349878    0.137161   -0.262284  5.51242e-05
2840   0.0353202    0.137458   -0.726869  2.87974e-05
2850   0.0344119    0.136646    -0.57236  7.31966e-05
2860   0.0338562    0.136149   -0.339803  5.86033e-05
2870   0.0332398    0.135598   -0.610704  2.9074e-05
2880   0.0332747    0.135629   -0.765742  2.62326e-05
2890   0.0327152    0.135129   -0.572171  7.09208e-05
2900   0.0318563    0.134361   -0.804501  8.00403e-05
2910   0.0311144    0.133698   -0.843185  7.72872e-05
2920   0.0303106    0.132979   -0.920856  1.17335e-05
2930   0.0308797    0.133488   -0.572511  9.86841e-05
2940   0.0283369    0.131214   -0.533563  5.37726e-05
2950   0.0298042    0.132526   -0.688752  -5.838e-06
2960   0.0284537    0.131319   -0.804728  8.41426e-05
2970   0.0281214    0.131022   -0.611535  9.65036e-05
2980   0.0265236    0.129593    -1.07593  0.000120806
2990   0.0257053    0.128861   -0.456913  7.59122e-05
3000   0.0250053    0.128236   -0.843979  3.9856e-05
3010   0.0249081    0.128149    -0.57304  6.12114e-05
3020   0.0237811    0.127141    -1.46311  0.00013409
3030   0.0222263    0.125751   -0.611686  0.000125332
3040   0.0212745      0.1249   -0.727889  6.18709e-05
3050   0.0209889    0.124644   -0.650597  5.90536e-05
3060   0.0200934    0.123844   -0.650862  0.000117131
3070   0.0186463     0.12255   -0.960409    9.91e-05
3080   0.0181114    0.122072    -1.34751  0.000117805
3090   0.0162902    0.120443    -1.15375  0.000148688
3100   0.0151376    0.119413    -1.38612  9.39495e-05
3110   0.0144112    0.118763   -0.650748  6.96772e-05
3120   0.0137441    0.118167   -0.689546  8.21914e-05
3130   0.0127674    0.117293    -1.46349  9.78138e-05
3140   0.0117878    0.116418    -1.07627  8.26706e-05
3150    0.011114    0.115815    -1.19255  0.000104565
3160  0.00969651    0.114548   -0.844395  0.000104818
3170  0.00901762    0.113941    -1.07661  6.79898e-05
3180  0.00833672    0.113332   -0.805673  7.74983e-05
3190  0.00746765    0.112555   -0.805635  9.33362e-06
3200  0.00815005    0.113165   -0.883306  2.5041e-05
3210  0.00696683    0.112107   -0.999206  2.49744e-05
3220  0.00765056    0.112718   -0.921914  1.89426e-05
3230  0.00658798    0.111768   -0.883456  3.76311e-05
3240  0.00689794    0.112045   -0.728683  -2.79133e-05
3250  0.00714625    0.112267     -0.2253  -6.0488e-06
3260  0.00701891    0.112154  -0.0705271  4.10151e-05
3270  0.00632594    0.111534   -0.380112  6.49295e-06
3280  0.00688905    0.112037    -1.07714  6.60503e-06
3290  0.00619384    0.111416   -0.883608  4.12363e-05
3300  0.00606433      0.1113   -0.535188  7.61539e-05
3310  0.00467077    0.110054    -0.45782  7.62834e-05
3320  0.00453866    0.109936   -0.303008  5.12595e-05
3330  0.00364558    0.109137   -0.186881  7.35715e-05
3340  0.00306723     0.10862   -0.341806  4.52107e-05
3350  0.00274136    0.108329   -0.767632  4.8548e-05
3360  0.00209627    0.107752    -0.57425  5.50505e-05
3370  0.00164035    0.107344   -0.457858  9.53279e-07
3380   0.0020772    0.107735   0.0451848  7.4129e-06
3390   0.0014921    0.107212  0.00646292  2.65789e-05
3400  0.00154563     0.10726   -0.458009  -2.15779e-06
3410  0.00153525     0.10725   -0.380603  -5.35673e-05
3420  0.00261697    0.108218    -0.69034  -0.000108333
3430  0.00370192    0.109188   -0.342184  -5.06687e-05
3440  0.00363034    0.109124    -0.45816  2.97574e-05
3450  0.00310677    0.108656   -0.729288  1.04273e-05
3460   0.0034218    0.108937   -0.264967  -1.53724e-05
3470  0.00341422    0.108931   -0.651731  7.24541e-06
3480  0.00327689    0.108808   -0.264929  5.59575e-05
3490  0.00229506     0.10793   -0.342146  7.23228e-05
3500  0.00183043    0.107514   -0.303462  3.67641e-05
3510  0.00155978    0.107272   0.0448069  3.36318e-05
3520   0.0011578    0.106913    0.277062  2.06575e-05
3530  0.00114663    0.106903    0.393151  4.39266e-06
3540  0.00106995    0.106834    0.238113  3.06153e-05
3550  0.000534327    0.106356    0.276873  5.03654e-05
3560  6.2638e-05    0.105934    0.277024  7.68276e-05
3570  -0.00100222    0.104982     0.62552  4.08059e-05
3580  -0.000753481    0.105204    0.470444   2.125e-05
3590  -0.00142722    0.104602   0.0836797  9.38982e-05
3600  -0.00263145    0.103525    0.277402  4.45349e-05
3610  -0.00231792    0.103805   -0.109967  5.47339e-05
3620  -0.00372612    0.102546   -0.264778   7.136e-05
3630  -0.00374512    0.102529   -0.535603  -2.13558e-05
3640  -0.00329901    0.102928   -0.341957  -3.80269e-05
3650  -0.00298458    0.103209     -0.3035  4.51823e-05
3660  -0.00420265     0.10212   -0.264778  1.84927e-05
3670  -0.00335444    0.102879   -0.381019  1.53712e-05
3680  -0.00451008    0.101845   -0.458425  3.53583e-05
3690  -0.0040616    0.102246   -0.226359  1.54699e-05
3700  -0.00481948    0.101569   -0.574627  1.54207e-05
3710  -0.00437002     0.10197    -0.92335  3.23931e-05
