Time   C(t)   
ps   
0           1           1  1.4948e-09    0.052732
10     0.47694    0.832871    0.871199   0.0276398
20    0.447204    0.823369    0.751751  0.00254757
30    0.425989     0.81659   -0.825648  0.00207533
40    0.405697    0.810107   -0.903895  0.00160145
50    0.393959    0.806356  -0.0382186  0.00113251
60    0.383047     0.80287    0.906205  0.00119545
70     0.37005    0.798717   -0.119775  0.00114919
80    0.360063    0.795526     1.96923  0.00154064
90    0.339238    0.788872    0.432761  0.00126335
100    0.334796    0.787453     0.19552  0.000529829
110    0.328641    0.785486     1.06166  0.000585671
120    0.323083     0.78371     1.45485  0.000885929
130    0.310923    0.779824    0.391675  0.000606413
140    0.310955    0.779835     1.06023  0.000424805
150    0.302426     0.77711   0.0362555  0.000474174
160    0.301471    0.776804      1.2562  0.00033464
170    0.295734    0.774971     0.27088  0.00047617
180    0.291948    0.773762   -0.320664  0.000421941
190    0.287295    0.772275    0.507428  0.000644001
200    0.279068    0.769646     2.24109  0.00031911
210    0.280913    0.770235    0.111077  -0.000104603
220     0.28116    0.770315     1.64843  0.000369699
230    0.273519    0.767873     1.76691  0.000666247
240    0.267835    0.766057     1.88567  0.000173606
250    0.270046    0.766764   -0.599761  0.000254714
260    0.262741    0.764429     1.96346  0.000539427
270    0.259258    0.763316    0.623297  0.000460248
280    0.253536    0.761488    0.977253  0.000647164
290    0.246315    0.759181    0.308155  8.95694e-05
300    0.251744    0.760916    0.660033  0.000575289
310    0.234809    0.755504    0.151239  0.00075575
320    0.236629    0.756086     1.09508  7.93554e-05
330    0.233222    0.754997   -0.521015  0.000147826
340    0.233673    0.755141   -0.640155  0.000310594
350     0.22701    0.753012  -0.0875416  0.000317123
360     0.22733    0.753115     -1.2709  0.000255611
370    0.221898    0.751379    0.109383  0.00043111
380    0.218708     0.75036   -0.166404  0.000300521
390    0.215887    0.749458   -0.561678  0.000514542
400    0.208417    0.747072   -0.599415  0.000490235
410    0.206083    0.746326    -1.11229  -9.31785e-05
420    0.210281    0.747667    -1.58773  -4.26717e-05
430    0.206936    0.746598    -1.03493  0.000555329
440    0.199174    0.744118   -0.678893  0.000467934
450    0.197577    0.743608    -1.70476  3.36617e-05
460    0.198501    0.743903    -1.03539  0.000356203
470    0.190453    0.741332    -1.11271  0.000109725
480    0.196307    0.743202   -0.365984  0.000110676
490     0.18824    0.740624    0.265607  0.000224309
500     0.19182    0.741769    0.973674  -0.000123678
510    0.190713    0.741415   -0.209876  0.000244306
520    0.186934    0.740207   -0.642426  0.000136568
530    0.187982    0.740542    -1.19485  -0.000174856
540    0.190431    0.741325    -1.39296  -0.000111413
550     0.19021    0.741254   -0.842045  0.000660203
560    0.177227    0.737106   0.0672577  0.000137231
570    0.187466    0.740377    -1.78805  -0.000308878
580    0.183405     0.73908    -1.98474  0.000284982
590    0.181766    0.738556    -2.45753  0.000420291
600    0.174999    0.736394   -0.761951  0.000690321
610     0.16796    0.734144    -2.02198  1.11364e-05
620    0.174776    0.736323    -2.02421  -3.31394e-05
630    0.168622    0.734356    -2.92874  0.000223544
640    0.170305    0.734894    -3.28527  0.000192232
650    0.164778    0.733128     -1.4709  -4.63471e-05
660    0.171232     0.73519    -1.70965  -0.000155577
670    0.167889    0.734122     -2.0631  0.000535043
680    0.160532    0.731771    -1.70645  -0.000330834
690    0.174506    0.736236    -1.23697  -0.000408193
700    0.168695     0.73438   -0.763413  -9.89422e-05
710    0.176485    0.736868    -1.19923  -0.000461806
720    0.177932    0.737331    -1.86979  0.000251479
730    0.171455    0.735261    0.260449  0.00051178
740    0.167696     0.73406  -0.0539613  0.000239549
750    0.166664    0.733731    -1.39466  0.000201093
760    0.163674    0.732775   -0.882746  0.000312441
770    0.160415    0.731734  -0.0944307  6.06254e-06
780    0.163553    0.732736   -0.449234  -0.000144085
790    0.163297    0.732655    -1.00146  0.000182784
800    0.159897    0.731568  -0.0158766  0.000215849
810     0.15898    0.731275   0.0230158  0.000222956
820    0.155438    0.730144     1.16606  0.000190451
830    0.155171    0.730058    0.850223  -0.000334919
840    0.162136    0.732284    0.492879  -2.59481e-05
850     0.15569    0.730224      0.9282  0.000579505
860    0.150546    0.728581    0.338619  0.000383001
870     0.14803    0.727777     1.24476  0.000291492
880    0.144716    0.726718   -0.804577  -0.000130991
890     0.15065    0.728614     1.36117  0.000226603
900    0.140184     0.72527     1.04792  -0.000124993
910     0.15315    0.729412     1.99042  -2.44655e-05
920    0.140674    0.725426     1.47974  0.000618222
930    0.140785    0.725462    0.928546  -0.000164121
940    0.143956    0.726475    0.730313  -6.46189e-05
950    0.142078    0.725875     1.87382  0.000361381
960    0.136729    0.724165     1.75529  0.000181982
970    0.138438    0.724712     2.06882  2.44379e-06
980     0.13668     0.72415     2.69983  0.000229523
990    0.133848    0.723245     1.51759  0.000216651
1000    0.132347    0.722765     3.32923  0.000210524
1010    0.129637      0.7219     2.38469  -0.00010438
1020    0.134434    0.723432     1.51666  -0.000500318
1030    0.139643    0.725097     2.34387  -0.000131625
1040    0.137067    0.724274     2.81678  0.000109808
1050    0.137447    0.724395     2.18703  -1.77957e-05
1060    0.137423    0.724387     2.85636  0.000103588
1070    0.135376    0.723733     2.50271  -8.53993e-05
1080    0.139131    0.724933     2.93465  -0.000227144
1090    0.139918    0.725185     2.93422  2.25991e-05
1100    0.138679    0.724789     3.72354  6.98417e-05
1110    0.138522    0.724738     1.39718  0.000171816
1120    0.135242    0.723691     2.65905  0.000172086
1130     0.13508    0.723639      1.5956  -0.000174045
1140    0.138723    0.724803     3.24948  -0.000357985
1150     0.14224    0.725926     3.09041  5.67652e-05
1160    0.137588     0.72444     3.09202  1.88425e-06
1170    0.142202    0.725914     2.57861  2.29172e-05
1180     0.13713    0.724294     1.35744  0.000145494
1190    0.139292    0.724985     1.79041  -7.28078e-05
1200    0.138586    0.724759     1.78972  -5.25862e-05
1210    0.140344    0.725321      4.8243  0.000503088
1220    0.128524    0.721544      2.7378  0.000675117
1230    0.126841    0.721006     2.77761  -0.000292173
1240    0.134367    0.723411     2.97173  -0.000257868
1250    0.131999    0.722654     3.44575  -0.000341719
1260    0.141202    0.725595     4.19213  -8.65839e-05
1270     0.13373    0.723207     3.40474  0.000236872
1280    0.136464    0.724081     2.73364  0.000182663
1290    0.130077     0.72204     2.97077  0.000258736
1300     0.13129    0.722428     4.34932  0.00012116
1310    0.127654    0.721266     2.14364  1.70775e-05
1320    0.130948    0.722318     5.17629  -2.41481e-05
1330    0.128137     0.72142     4.42818  0.000184006
1340    0.127268    0.721143     2.45678  0.000330787
1350    0.121521    0.719306     2.77365  -0.000163636
1360    0.130541    0.722188     2.02219  -0.000198053
1370    0.125482    0.720572     1.51139  0.000352678
1380    0.123487    0.719935    0.802516  0.000318616
1390     0.11911    0.718536     1.51139  0.000242236
1400    0.118642    0.718387     1.59091  -0.000268753
1410    0.124485    0.720253     1.82611  0.00013807
1420    0.115881    0.717504     2.73383  0.000242954
1430    0.119626    0.718701    0.684031  -0.000494488
1440    0.125771    0.720664      1.6283  -0.000263054
1450    0.124887    0.720382     1.23468  -0.000101899
1460    0.127809    0.721315     2.17957  0.000124042
1470    0.122406    0.719589     2.26031  8.84771e-05
1480    0.126039     0.72075     3.40155  -0.000137268
1490    0.125151    0.720466    0.801978  -7.40662e-05
1500    0.127521    0.721223      1.2348  -1.02043e-05
1510    0.125356    0.720532    0.958932  9.60223e-05
1520      0.1256     0.72061     1.35301  -0.000365773
1530    0.132671    0.722869    0.327149  3.96445e-06
1540    0.125521    0.720584     2.33879  0.000516276
1550    0.122345     0.71957     1.43322  -0.000302862
1560    0.131578     0.72252     1.35282  -0.000302871
1570    0.128403    0.721505      2.0627  0.000124788
1580    0.129082    0.721722     2.02269  9.67696e-05
1590    0.126468    0.720887      2.2592  0.000276056
1600    0.123561    0.719958     2.65362  -8.22939e-05
1610    0.128113    0.721413     1.74567  -0.000240127
1620    0.128364    0.721493     2.14006  1.80945e-05
1630    0.127752    0.721297     0.44602  -6.8368e-05
1640    0.129731     0.72193      1.9037  3.97898e-05
1650    0.126956    0.721043     1.47031  0.000277893
1660    0.124173    0.720154     1.27288  0.000206279
1670     0.12283    0.719725   0.0520927  -9.71235e-05
1680    0.126116    0.720774   -0.422696  9.13408e-05
1690    0.121003    0.719141   0.0518237  0.000446602
1700    0.117184     0.71792     1.23472  0.000200757
1710    0.116988    0.717858     1.27288  0.000288703
1720     0.11141    0.716075    0.919309  0.000136167
1730    0.114265    0.716988     1.27315  4.9499e-05
1740     0.11042    0.715759      2.0617  -6.03188e-05
1750    0.115471    0.717373     3.24382  -0.000191477
1760    0.114249    0.716983     2.96738  0.000283387
1770    0.109803    0.715562     1.15463  0.00027655
1780    0.108718    0.715216     1.78529  0.000116002
1790    0.107483    0.714821    0.169733  -0.000228888
1800    0.113296    0.716678    0.837752  0.000256329
1810    0.102357    0.713183    0.603359  0.000631382
1820    0.100668    0.712643      1.0371  -5.93953e-05
1830    0.103545    0.713562   0.0495921  1.45599e-05
1840    0.100377     0.71255    0.719844  -6.70996e-05
1850    0.104887    0.713991     1.78395  2.20027e-05
1860    0.099937     0.71241     1.35032  0.000288153
1870   0.0991237     0.71215    0.679758  0.000148208
1880   0.0969729    0.711463     2.65039  0.000311881
1890   0.0928861    0.710157    0.996054  0.00019351
1900   0.0931026    0.710226    0.798398  -0.000103484
1910   0.0949558    0.710818     1.07342  -0.000207967
1920    0.097262    0.711555   -0.386499  0.000231807
1930   0.0903196    0.709337   -0.345683  0.000291585
1940   0.0914303    0.709692    0.678296  0.000188073
1950   0.0865582    0.708135      1.2708  0.000135766
1960    0.088715    0.708824   -0.306174  -0.000298487
1970   0.0925279    0.710042   -0.267012  -0.000141456
1980   0.0915441    0.709728    -1.09487  -0.000157125
1990   0.0956704    0.711046    -1.37116  -5.18214e-05
2000   0.0925805    0.710059     -1.1338  0.000158692
2010   0.0924966    0.710032   -0.699908  -8.22283e-05
2020   0.0942251    0.710585    -1.56736  -8.2368e-05
2030   0.0941439    0.710559   -0.701178  -8.26571e-05
2040   0.0958782    0.711113    -1.48992  0.000106684
2050   0.0920103    0.709877    -1.48861  -1.48114e-05
2060   0.0961744    0.711208    -1.52966  0.000122344
2070   0.0895634    0.709095    -1.01543  0.00017522
2080   0.0926701    0.710088    -0.77981  8.49422e-05
2090   0.0878645    0.708552   -0.976773  -4.49289e-05
2100   0.0935686    0.710375   -0.742033  -5.20453e-05
2110   0.0889054    0.708885    -0.54457  0.000390462
2120   0.0857594     0.70788    -0.78054  0.000177272
2130     0.08536    0.707752    -1.80517  2.46331e-05
2140   0.0852667    0.707722    -1.49034  -0.000289888
2150   0.0911577    0.709605    -1.72766  -0.000144272
2160   0.0881522    0.708644    -1.37278  0.000100957
2170   0.0891386    0.708959    -1.17647  -6.35199e-06
2180   0.0882792    0.708685    -2.20068  0.000140056
2190   0.0863375    0.708064    -1.49107  0.000171209
2200    0.084855    0.707591   -0.427315  -4.47609e-05
2210   0.0872327     0.70835     -1.6493  0.000133416
2220   0.0821867    0.706738    -1.92408  0.000109976
2230   0.0850332    0.707648    -3.02935  -0.000184137
2240   0.0858694    0.707915    -3.42239  -4.48819e-05
2250   0.0859308    0.707934    -2.20214  0.00011838
2260   0.0835018    0.707158    -2.67435  -6.06637e-05
2270   0.0871441    0.708322    -3.46351  -6.82373e-05
2280   0.0848666    0.707594    -2.99069  0.000306173
2290   0.0810206    0.706366    -3.10817  0.000181711
2300   0.0812324    0.706433    -2.12343  -2.1182e-05
2310   0.0814443    0.706501    -2.20303  0.000119928
2320   0.0788338    0.705667     -2.3209  0.000394884
2330   0.0735466    0.703977    -1.80771  7.33301e-05
2340   0.0773672    0.705198    -1.61171  -0.000327355
2350   0.0800937    0.706069    -2.16325  -8.3879e-05
2360   0.0790448    0.705734    -2.71394  -6.07103e-05
2370   0.0813079    0.706457    -2.51809  -3.69262e-05
2380   0.0797833     0.70597    -2.75371  0.000113092
2390   0.0790461    0.705735    -1.76855  0.000319446
2400   0.0733944    0.703929   -0.979198  0.000208891
2410   0.0748683      0.7044   -0.743496  -0.000203183
2420    0.077458    0.705227   -0.823089  4.29422e-05
2430   0.0740094    0.704125   -0.546841  0.000106339
2440   0.0753313    0.704548     -2.3609  -8.44575e-05
2450   0.0756986    0.704665    -0.35107  3.11546e-06
2460    0.075269    0.704528    -1.33673  -0.000124937
2470   0.0781973    0.705463    -1.37636  0.000211371
2480   0.0710415    0.703177   -0.902106  0.000219272
2490   0.0738119    0.704062    -0.39081  -6.85915e-05
2500   0.0724134    0.703615    -2.04665  0.000389287
2510   0.0660261    0.701574   -0.547996  0.000542989
2520   0.0615536    0.700145    -1.45395  -3.59561e-05
2530   0.0667453    0.701804    -1.61221  4.99003e-06
2540   0.0614538    0.700113    -1.06056  0.000101367
2550   0.0647179    0.701156    -1.73197  -2.73472e-05
2560   0.0620007    0.700288     -1.0621  0.000272026
2570   0.0592774    0.699418     -2.5591  0.000183502
2580   0.0583307    0.699116    -1.96848  -0.0001816
2590   0.0629094    0.700579    -3.82151  3.80175e-05
2600   0.0575703    0.698873    -2.08689  0.000257504
2610   0.0577593    0.698933    -3.50622  -5.96937e-05
2620   0.0587642    0.699254    -4.25583  -0.000190572
2630   0.0615707    0.700151    -2.67963  -0.000125515
2640   0.0612745    0.700056    -4.37424  0.000193548
2650   0.0576998    0.698914    -2.99534  0.000505653
2660   0.0511615    0.696825    -3.82259  0.000679361
2670   0.0441126    0.694573    -1.69296  -9.95211e-06
2680   0.0513605    0.696888    -3.11441  -7.55489e-07
2690   0.0441277    0.694577       -2.64  0.000526256
2700   0.0408354    0.693525    -1.93113  0.000139665
2710   0.0413344    0.693685    -2.01003  0.000264406
2720   0.0355472    0.691836    -1.97006  8.24707e-05
2730    0.039685    0.693158    -1.65619  -9.08371e-05
2740    0.037364    0.692416    -1.81391  6.63066e-05
2750   0.0383588    0.692734    -2.09004  -0.000224439
2760   0.0418528    0.693851    -2.52479  -2.49781e-05
2770   0.0388584    0.692894     -1.2239  0.000424973
2780   0.0333533    0.691135   -0.907725  0.000317356
2790   0.0325113    0.690866   -0.868294  0.000234941
2800   0.0286545    0.689633    -2.60203  0.000101339
2810   0.0304845    0.690218     -2.7211  -0.000199965
2820   0.0326538    0.690911    -2.36698  -0.000536451
2830   0.0412135    0.693646    -2.76264  -0.00020945
2840   0.0368428     0.69225    -1.73755  0.000673504
2850   0.0277434    0.689342    -1.85407  0.000379801
2860   0.0292468    0.689823    -1.85473  -0.000429291
2870   0.0363292    0.692086    -2.44712  5.20735e-05
2880   0.0282053     0.68949    -2.52436  7.65294e-05
2890   0.0347987    0.691597    -2.84127  -0.000117298
2900   0.0305513    0.690239    -1.93405  0.000612169
2910   0.0225553    0.687685    -3.27259  0.000247822
2920   0.0255948    0.688656    -1.77621  -0.000261822
2930   0.0277917    0.689358    -2.40757  0.000129769
2940   0.0229994    0.687826    -3.43193  0.000274871
2950   0.0222943    0.687601    -2.84093  0.000156202
2960   0.0198754    0.686828    -3.15642  -6.23986e-06
2970   0.0224191    0.687641     -2.6452  3.70194e-05
2980    0.019135    0.686592    -3.90592  0.000113996
2990   0.0201392    0.686913    -3.11768  -0.000126336
3000   0.0216617    0.687399    -3.94562  -0.000273108
3010   0.0256013    0.688658    -3.63155  0.000105947
3020   0.0195428    0.686722    -4.14293  0.000373459
3030   0.0181322    0.686271    -2.96065  -0.000135701
3040   0.0222568    0.687589    -3.51403  0.000132875
3050   0.0154747    0.685422     -4.4583  0.000201961
3060   0.0182176    0.686299    -3.39443  -0.000379065
3070    0.023056    0.687845    -4.69573  -3.18988e-05
3080   0.0188556    0.686502    -4.34016  0.000403194
3090   0.0149921    0.685268    -4.49769  -0.000232834
3100   0.0235122     0.68799     -4.4201  0.000117065
3110   0.0126508     0.68452    -5.12732  2.84571e-05
3120   0.0229431    0.687808      -3.947  -0.000539809
3130    0.023447    0.687969    -5.12944  -0.000190852
3140   0.0267601    0.689028    -5.72152  -9.44841e-05
3150   0.0253366    0.688573    -4.10423  -0.000315295
3160    0.033066    0.691043     -3.9874  0.000292919
3170   0.0194783    0.686701     -5.0108  0.000530631
3180   0.0224534    0.687652    -4.22244  -0.000315593
3190   0.0257901    0.688718    -5.12986  0.000392113
3200   0.0146112    0.685146     -4.7739  1.96523e-05
3210   0.0253971    0.688593    -4.65722  -0.000671611
3220   0.0280434    0.689438    -5.28797  0.00050901
3230   0.0152169     0.68534    -5.79842  0.000393578
3240   0.0201718    0.686923    -4.85434  -0.000505177
3250   0.0253204    0.688568    -4.81556  -0.000336859
3260    0.026909    0.689076    -5.95849  -0.000347054
3270   0.0322615    0.690786    -3.75231  0.000297499
3280    0.020959    0.687174    -5.72094  0.000315127
3290   0.0259589    0.688772    -4.42102  -0.000536731
3300   0.0316936    0.690604    -4.26422  -7.11661e-06
3310   0.0261013    0.688818    -3.39643  0.000199368
3320   0.0277063     0.68933    -4.34339  -0.00022388
3330   0.0305789    0.690248    -4.42214  -0.000296771
3340   0.0336417    0.691227    -5.60515  -0.000125599
3350   0.0330909    0.691051     -3.9108  0.000590269
3360   0.0218363    0.687455    -3.79085  0.000464119
3370   0.0238085    0.688085    -4.42248  7.53074e-05
3380   0.0203302    0.686974    -4.89477  -7.98124e-05
3390   0.0254047    0.688595    -5.80211  -0.000353126
3400   0.0273927     0.68923    -4.62079  0.000239624
3410   0.0206122    0.687064    -4.06849  0.000157293
3420   0.0242469    0.688225    -3.75354  0.000149384
3430   0.0176246    0.686109    -3.87168  0.000424544
3440    0.015756    0.685512    -4.06857  0.000352613
3450   0.0105723    0.683856    -3.91046  0.000242898
3460    0.010898     0.68396    -4.62041  3.19268e-05
3470  0.00993378    0.683652    -4.42429  -0.000208229
3480   0.0150626     0.68529    -3.51876  0.00060578
3490  -0.00218181     0.67978    -3.20104  0.000364981
3500  0.00776298    0.682958    -4.03106  -0.000290727
3510  0.00363274    0.681638    -3.83367  0.000553118
3520  -0.00329939    0.679423    -3.75366  -1.31793e-05
3530  0.00389632    0.681723    -2.65243  -0.000450352
3540  0.00570765    0.682301     -2.8492  -9.73661e-05
3550  0.00584364    0.682345    -3.79474  0.000182784
3560  0.00205197    0.681133    -3.08491  0.000314185
3570  -0.000440055    0.680337     -2.9268  0.000108857
3580  -0.00012517    0.680438    -4.18813  -3.15351e-05
3590  0.000190647    0.680539    -4.07041  -1.27689e-05
3600  0.000130207    0.680519    -3.24363  6.25665e-05
3610  -0.00106068    0.680139    -2.88894  0.000109836
3620  -0.00206652    0.679817    -2.77103  -6.94033e-05
3630  0.000327383    0.680582    -3.63867  5.3743e-05
3640  -0.00314138    0.679474    -2.10117  0.000243121
3650  -0.00453505    0.679029     -2.8896  0.000367564
3660  -0.0104927    0.677125    -1.82511  0.00029222
3670  -0.0103794    0.677161    -3.36254  0.000207893
3680  -0.0146505    0.675796    -2.88902  -0.000144962
3690  -0.00748019    0.678088    -3.16638  4.66824e-05
3700  -0.0155842    0.675498    -2.96753  0.000428657
3710  -0.0160533    0.675348    -3.55989  -1.0605e-05
3720  -0.0153721    0.675566    -3.40255  2.78975e-05
3730  -0.0166113     0.67517    -3.63952  0.000403101
3740  -0.0234341     0.67299    -3.48099  0.000288283
3750  -0.0223769    0.673328     -3.4414  -0.00018312
3760  -0.0197717     0.67416    -4.30823  0.000299803
3770   -0.028373    0.671412     -4.5839  2.87184e-05
3780  -0.0203461    0.673977     -5.1374  -0.000280188
3790  -0.0227692    0.673202    -5.84647  0.000106647
3800   -0.022479    0.673295    -6.35857  0.000175285
3810  -0.0262749    0.672082    -5.25531  -1.93445e-05
3820  -0.0220921    0.673419    -4.74286  -0.000536078
3830  -0.0155534    0.675508    -6.55742  0.000136969
3840  -0.0248315    0.672543    -5.80685  7.73127e-05
3850  -0.0170996    0.675014    -5.09805  -0.000548837
3860  -0.0138547    0.676051     -5.1778  0.000205542
3870  -0.0212105      0.6737    -4.58637  0.000126653
3880  -0.0163878    0.675241    -5.96623  -0.000335218
3890  -0.0145061    0.675843    -4.27161  -5.02267e-05
3900  -0.0153833    0.675562    -4.70508  8.78338e-05
3910  -0.0162628    0.675281    -4.78449  7.81895e-05
3920  -0.0169471    0.675063    -5.53256  -4.05358e-05
3930  -0.0154521     0.67554    -5.65155  -0.000110079
3940  -0.0147455    0.675766    -5.73076  0.00054644
3950  -0.0263809    0.672048      -6.005  -0.000130785
3960  -0.0121298    0.676602    -6.67768  -0.000628426
3970  -0.0138124    0.676064    -4.74571  0.000108447
3980  -0.0142987    0.675909    -5.92822  -7.14832e-05
3990  -0.0123827    0.676521    -5.29763  -6.14285e-05
4000  -0.0130701    0.676301    -7.07091  -0.000202679
4010  -0.00832914    0.677816    -5.29763  -0.000192811
4020  -0.00921392    0.677534    -5.21873  0.000199564
4030  -0.0123204    0.676541    -4.94283  2.82053e-05
4040  -0.00977802    0.677353    -5.92864  -0.00029513
4050  -0.00641782    0.678427    -5.17941  -0.000285905
4060  -0.00405992     0.67918    -5.69283  0.00012947
4070  -0.00900723      0.6776    -6.00743  0.000251385
4080  -0.00908763    0.677574    -6.12653  0.000313747
4090  -0.0152822    0.675595    -6.00697  1.82625e-05
4100  -0.00945288    0.677457    -6.00816  -0.000123827
4110  -0.0128056    0.676386    -7.26953  0.000131074
4120  -0.0120744     0.67662    -8.05796  -3.22813e-05
4130    -0.01216    0.676592    -6.67926  0.000224467
4140  -0.0165637    0.675185     -6.5605  0.000111618
4150  -0.0143923    0.675879    -7.70408  -0.000186515
4160  -0.0128334    0.676377    -7.03375  -8.38884e-05
4170  -0.0127146    0.676415    -8.80781  -0.00018783
4180  -0.00907681    0.677577    -7.70489  0.000216138
4190  -0.0170373    0.675034    -7.11289  0.000340497
4200  -0.0158867    0.675401    -8.25585  5.11874e-05
4210  -0.0180611    0.674707    -7.54647  0.000113651
4220  -0.0181598    0.674675    -8.88725  -0.000459866
4230  -0.00886377    0.677645      -8.613  -0.000282948
4240  -0.0125008    0.676483    -8.33598  0.000626215
4250  -0.0213881    0.673644    -8.45381  0.000460099
4260  -0.0217028    0.673543    -8.21757  4.19907e-05
4270  -0.0222279    0.673375    -7.82353  7.36751e-05
4280  -0.0231763    0.673072    -6.76008  -0.000147583
4290  -0.0192762    0.674318    -7.50962  0.00014818
4300  -0.0261399    0.672125    -8.41415  -5.3342e-05
4310  -0.0182094    0.674659    -8.53448  -0.00025368
4320  -0.0210663    0.673746    -7.70651  9.99877e-06
4330  -0.0184094    0.674595    -7.23418  0.00022332
4340  -0.0255327    0.672319    -8.25773  0.000319194
4350  -0.0247932    0.672556    -7.43041  0.000118156
4360  -0.0278958    0.671564    -8.17887  0.000161033
4370  -0.0280139    0.671527    -7.46954  -0.000331123
4380  -0.0212734     0.67368    -7.58883  -0.000449792
4390  -0.0190181    0.674401    -8.33764  -0.000247449
4400  -0.0163244    0.675262    -8.14075  0.000215009
4410  -0.0233182    0.673027    -7.98287  0.000614295
4420  -0.0286103    0.671336    -8.57315  -0.000194331
4430  -0.0194316    0.674269    -7.86523  -0.000377908
4440  -0.0210521    0.673751    -8.06289  0.00010812
4450   -0.021594    0.673578    -7.27442  -1.11852e-07
4460  -0.0210499    0.673752    -7.54986  -8.71529e-05
4470   -0.019851    0.674135    -8.18076  -2.19282e-05
4480  -0.0206113    0.673892    -7.86593  0.000305716
4490  -0.0259653    0.672181    -7.62957  0.000328306
4500  -0.0271774    0.671794    -8.25997  -0.00036125
4510  -0.0187403     0.67449     -7.3549  -0.000405647
4520  -0.0190645    0.674386    -8.77265  0.000109547
4530  -0.0209312     0.67379    -8.18164  0.000440736
4540  -0.0278792     0.67157    -6.84041  8.82442e-05
4550  -0.0226961    0.673226    -6.76289  -0.000364216
4560  -0.0205949    0.673897    -7.70935  8.89343e-05
4570  -0.0244748    0.672657    -7.23645   2.204e-05
4580  -0.0210357    0.673756    -7.23657  -3.28875e-05
4590  -0.0238171    0.672868    -7.78849  0.000278667
4600   -0.026609    0.671975    -6.88169  2.27583e-05
4610  -0.0242722    0.672722    -6.84283  -2.14337e-05
4620  -0.0261804    0.672112     -7.3162  0.000135057
4630  -0.0269734    0.671859    -7.19733  7.9486e-05
4640  -0.0277701    0.671604    -8.49829  0.000192391
4650  -0.0308212     0.67063    -8.77415  -8.91022e-05
4660   -0.025988    0.672174    -7.67104  -5.47783e-05
4670  -0.0297256     0.67098    -7.15797  4.60947e-05
4680  -0.0269099    0.671879    -7.59233  -7.79096e-05
4690  -0.0281674    0.671477    -7.79006  -2.17415e-05
4700  -0.0264751    0.672018    -7.51405  3.53592e-05
4710  -0.0288746    0.671252    -8.10559  0.000479994
4720   -0.036075    0.668951    -7.35563  0.000195665
4730  -0.0327879    0.670001    -6.76532  0.000323316
4740  -0.0425413    0.666885    -8.06439  0.000105378
4750  -0.0348955    0.669328    -7.31708  -0.000306341
4760  -0.0364145    0.668842    -7.55417  -0.000170248
4770  -0.0314905    0.670416    -7.51597  0.000291268
4780  -0.0422399    0.666981    -7.04126  0.000614594
4790  -0.0437824    0.666488    -6.80533  -7.62958e-06
4800  -0.0420873     0.66703    -7.12054  0.000317571
4810  -0.0501338    0.664459    -7.63242  0.000189957
4820  -0.0458864    0.665816    -8.14602  -1.78054e-05
4830  -0.0497777    0.664573    -7.47593  0.000448235
4840  -0.0548511    0.662951     -6.9235  6.39189e-05
4850  -0.0510561    0.664164    -8.57934  -0.000509132
4860  -0.0446685    0.666205    -8.81701  -0.000146903
4870   -0.048118    0.665103     -7.7529  0.000110349
4880  -0.0468754      0.6655    -7.98857  -0.000336608
4890  -0.0413859    0.667254    -7.28046  7.5783e-05
4900  -0.0483911    0.665016    -8.30409  0.00011034
4910  -0.0435927    0.666549    -8.50225  -0.000137006
4920   -0.045651    0.665891    -9.09291  7.55871e-05
4930  -0.0451044    0.666066    -7.24095  -0.000269051
4940    -0.04027     0.66761    -7.28096  -7.88515e-05
4950  -0.0435274     0.66657     -7.6745  0.000302442
4960  -0.0463188    0.665678    -7.71451  0.000159979
4970   -0.046727    0.665547    -6.92504  -0.000139058
4980  -0.0435376    0.666566    -8.06843  -0.00019934
4990  -0.0427402    0.666821    -8.54164  -0.000259621
