Time   Number   
ps   
0          25          26
10          26          30
20          28          26
30          25          29
40          27          28
50          27          31
60          26          31
70          29          26
80          30          24
90          30          28
100          26          28
110          27          30
120          28          32
130          26          31
140          26          27
150          26          30
160          25          33
170          28          25
180          29          27
190          28          25
200          25          30
210          27          26
220          30          28
230          26          37
240          26          29
250          28          34
260          27          29
270          28          35
280          24          29
290          29          28
300          29          23
310          28          26
320          25          29
330          28          23
340          26          25
350          28          24
360          27          28
370          28          27
380          27          24
390          27          23
400          28          27
410          24          28
420          29          26
430          26          31
440          29          28
450          24          32
460          25          33
470          29          27
480          25          26
490          25          27
500          25          26
510          23          22
520          27          22
530          25          28
540          27          30
550          28          27
560          30          34
570          30          23
580          27          31
590          27          28
600          30          26
610          28          25
620          23          24
630          28          24
640          29          22
650          25          26
660          26          25
670          29          22
680          27          26
690          26          29
700          25          27
710          27          28
720          33          28
730          29          28
740          30          27
750          24          35
760          29          28
770          30          27
780          31          30
790          26          32
800          27          27
810          27          27
820          24          32
830          28          32
840          27          26
850          24          31
860          28          27
870          28          32
880          28          37
890          29          28
900          27          28
910          24          28
920          26          30
930          29          24
940          30          29
950          26          27
960          28          30
970          32          23
980          29          25
990          25          27
1000          29          22
1010          28          28
1020          28          29
1030          28          26
1040          32          27
1050          31          27
1060          30          27
1070          29          30
1080          31          25
1090          26          27
1100          26          25
1110          28          27
1120          28          32
1130          27          27
1140          30          31
1150          28          29
1160          24          34
1170          28          23
1180          28          27
1190          25          32
1200          26          28
1210          29          27
1220          29          26
1230          30          29
1240          30          29
1250          25          33
1260          25          31
1270          27          26
1280          31          26
1290          31          28
1300          30          23
1310          27          28
1320          27          27
1330          32          25
1340          28          28
1350          26          30
1360          28          23
1370          26          30
1380          25          29
1390          30          25
1400          29          26
1410          27          28
1420          26          30
1430          27          26
1440          26          28
1450          29          25
1460          23          28
1470          25          31
1480          26          25
1490          26          36
1500          30          32
1510          24          32
1520          25          31
1530          27          29
1540          28          25
1550          24          28
1560          25          30
1570          27          28
1580          25          25
1590          28          27
1600          28          27
1610          25          31
1620          23          27
1630          23          35
1640          22          19
1650          29          28
1660          24          26
1670          27          28
1680          28          20
1690          22          32
1700          29          24
1710          26          27
1720          26          23
1730          24          31
1740          28          25
1750          26          26
1760          27          23
1770          28          26
1780          26          24
1790          32          24
1800          27          25
1810          27          31
1820          24          24
1830          25          27
1840          28          24
1850          26          23
1860          29          27
1870          29          17
1880          25          33
1890          26          22
1900          27          24
1910          26          29
1920          29          26
1930          25          26
1940          22          33
1950          26          28
1960          29          24
1970          27          25
1980          28          25
1990          28          24
2000          26          23
2010          24          23
2020          23          27
2030          30          22
2040          29          22
2050          28          26
2060          28          29
2070          30          27
2080          29          24
2090          24          28
2100          26          31
2110          26          27
2120          27          30
2130          27          28
2140          27          27
2150          31          22
2160          29          29
2170          26          32
2180          26          31
2190          32          28
2200          27          30
2210          30          26
2220          29          23
2230          32          26
2240          29          25
2250          28          33
2260          30          28
2270          27          27
2280          29          25
2290          31          28
2300          26          31
2310          29          25
2320          28          30
2330          31          26
2340          28          29
2350          30          24
2360          29          26
2370          29          29
2380          29          29
2390          28          30
2400          29          25
2410          30          28
2420          32          23
2430          31          28
2440          27          27
2450          28          27
2460          28          29
2470          27          30
2480          32          23
2490          32          27
2500          29          22
2510          27          29
2520          28          29
2530          31          26
2540          28          30
2550          29          29
2560          29          27
2570          29          25
2580          28          28
2590          32          23
2600          32          22
2610          29          30
2620          31          26
2630          29          28
2640          30          25
2650          30          35
2660          30          27
2670          31          24
2680          32          23
2690          29          24
2700          29          28
2710          27          26
2720          29          24
2730          31          26
2740          27          24
2750          30          24
2760          29          21
2770          31          28
2780          28          27
2790          26          30
2800          29          26
2810          24          33
2820          26          30
2830          32          22
2840          26          26
2850          24          26
2860          28          24
2870          27          27
2880          26          32
2890          32          26
2900          27          28
2910          28          32
2920          30          25
2930          28          24
2940          28          29
2950          27          23
2960          26          25
2970          26          24
2980          28          28
2990          28          21
3000          25          32
3010          23          30
3020          28          23
3030          27          29
3040          24          31
3050          24          29
3060          23          28
3070          22          26
3080          23          23
3090          25          18
3100          22          27
3110          20          24
3120          24          31
3130          19          27
3140          26          28
3150          27          26
3160          25          32
3170          25          29
3180          31          23
3190          27          30
3200          24          32
3210          28          23
3220          26          28
3230          28          28
3240          28          30
3250          24          29
3260          30          23
3270          27          26
3280          26          27
3290          25          25
3300          26          28
3310          26          29
3320          25          27
3330          28          26
3340          27          27
3350          27          23
3360          26          28
3370          25          29
3380          27          29
3390          27          31
3400          26          24
3410          23          33
3420          25          32
3430          25          29
3440          24          29
3450          24          30
3460          28          24
3470          28          26
3480          27          29
3490          24          29
3500          28          32
3510          27          27
3520          27          29
3530          26          35
3540          24          32
3550          26          27
3560          23          25
3570          28          26
3580          26          29
3590          29          30
3600          25          35
3610          25          26
3620          29          26
3630          28          29
3640          30          27
3650          29          28
3660          24          32
3670          30          26
3680          26          28
3690          28          27
3700          27          28
3710          30          26
3720          29          25
3730          28          27
3740          29          29
3750          24          34
3760          30          24
3770          29          27
3780          23          29
3790          28          23
3800          28          26
3810          26          30
3820          26          30
3830          26          30
3840          31          29
3850          29          27
3860          29          30
3870          29          28
3880          28          33
3890          28          35
3900          28          31
3910          27          32
3920          24          28
3930          32          28
3940          29          27
3950          21          35
3960          22          36
3970          22          31
3980          24          34
3990          23          36
4000          25          29
4010          25          26
4020          24          31
4030          26          32
4040          25          26
4050          29          26
4060          25          28
4070          24          30
4080          28          28
4090          29          26
4100          26          26
4110          27          30
4120          24          31
4130          26          27
4140          26          28
4150          25          30
4160          23          34
4170          25          35
4180          28          26
4190          23          27
4200          22          32
4210          28          27
4220          25          28
4230          26          21
4240          28          27
4250          23          26
4260          25          32
4270          24          27
4280          26          29
4290          28          26
4300          26          25
4310          20          30
4320          20          29
4330          24          29
4340          23          27
4350          27          25
4360          24          28
4370          24          25
4380          21          22
4390          24          23
4400          26          23
4410          21          27
4420          24          26
4430          26          25
4440          28          25
4450          28          25
4460          23          28
4470          30          25
4480          29          27
4490          27          26
4500          20          31
4510          22          31
4520          26          29
4530          26          29
4540          25          29
4550          24          25
4560          25          29
4570          29          27
4580          26          27
4590          27          27
4600          27          27
4610          31          23
4620          26          30
4630          24          29
4640          23          31
4650          27          24
4660          25          26
4670          26          28
4680          27          26
4690          25          28
4700          27          26
4710          24          23
4720          25          31
4730          28          30
4740          21          29
4750          28          23
4760          22          29
4770          26          25
4780          22          33
4790          23          28
4800          25          22
4810          24          28
4820          24          30
4830          27          30
4840          27          25
4850          23          32
4860          21          31
4870          27          22
4880          21          30
4890          24          26
4900          23          25
4910          25          26
4920          25          28
4930          24          24
4940          25          26
4950          26          27
4960          19          29
4970          23          29
4980          26          21
4990          22          29
5000          22          24
5010          24          21
5020          24          23
5030          21          22
5040          21          29
5050          24          25
5060          26          29
5070          26          26
5080          23          27
5090          28          26
5100          23          25
5110          25          29
5120          25          30
5130          26          30
5140          24          35
5150          20          31
5160          21          32
5170          27          23
5180          25          25
5190          23          26
5200          27          25
5210          26          28
5220          24          30
5230          27          27
5240          25          32
5250          28          26
5260          29          26
5270          26          29
5280          25          31
5290          26          28
5300          25          24
5310          21          30
5320          25          29
5330          27          21
5340          26          29
5350          27          27
5360          26          25
5370          27          27
5380          28          24
5390          25          27
5400          22          27
5410          24          26
5420          30          26
5430          24          27
5440          28          28
5450          25          29
5460          28          29
5470          26          29
5480          28          26
5490          27          31
5500          27          35
5510          31          28
5520          25          31
5530          26          32
5540          21          29
5550          25          28
5560          23          32
5570          29          25
5580          24          34
5590          22          26
5600          23          34
5610          25          31
5620          26          30
5630          24          28
5640          27          25
5650          22          30
5660          27          27
5670          27          29
5680          23          30
5690          26          28
5700          27          23
5710          22          27
5720          27          22
5730          23          22
5740          22          24
5750          20          31
5760          23          23
5770          25          24
5780          24          29
5790          25          27
5800          25          21
5810          22          26
5820          24          28
5830          22          28
5840          24          25
5850          20          29
5860          23          29
5870          23          22
5880          23          29
5890          27          28
5900          23          24
5910          25          22
5920          28          24
5930          24          24
5940          21          23
5950          24          22
5960          22          24
5970          25          22
5980          24          24
5990          24          21
6000          26          26
6010          25          19
6020          24          27
6030          19          29
6040          24          27
6050          22          26
6060          26          25
6070          25          26
6080          24          29
6090          22          28
6100          23          29
6110          24          32
6120          23          32
6130          25          25
6140          22          30
6150          27          29
6160          24          29
6170          21          26
6180          23          30
6190          26          23
6200          25          27
6210          27          26
6220          25          27
6230          25          34
6240          27          31
6250          23          32
6260          28          28
6270          24          25
6280          24          31
6290          20          33
6300          23          28
6310          26          28
6320          22          30
6330          23          25
6340          24          29
6350          24          24
6360          23          30
6370          27          25
6380          22          31
6390          25          29
6400          26          28
6410          22          32
6420          26          30
6430          24          28
6440          23          32
6450          26          35
6460          27          25
6470          24          31
6480          27          26
6490          26          29
6500          26          34
6510          25          26
6520          25          34
6530          27          26
6540          24          31
6550          27          26
6560          23          29
6570          23          26
6580          24          28
6590          26          28
6600          23          32
6610          24          29
6620          23          32
6630          25          26
6640          23          27
6650          26          27
6660          25          29
6670          22          28
6680          24          28
6690          27          29
6700          27          22
6710          26          26
6720          25          24
6730          26          26
6740          29          26
6750          26          22
6760          25          27
6770          25          32
6780          26          26
6790          23          28
6800          27          22
6810          24          31
6820          22          33
6830          28          33
6840          28          33
6850          25          32
6860          28          31
6870          25          34
6880          27          33
6890          33          27
6900          28          29
6910          28          28
6920          32          26
6930          33          28
6940          24          35
6950          27          28
6960          25          33
6970          27          31
6980          27          30
6990          29          28
7000          27          27
7010          25          32
7020          24          30
7030          25          29
7040          28          28
7050          27          30
7060          27          24
7070          28          25
7080          26          27
7090          26          29
7100          30          28
7110          26          29
7120          27          24
7130          25          30
7140          22          31
7150          23          35
7160          26          25
7170          25          24
7180          29          26
7190          26          25
7200          26          23
7210          24          24
7220          28          25
7230          24          28
7240          22          31
7250          25          24
7260          21          29
7270          23          28
7280          25          28
7290          26          28
7300          25          33
7310          24          27
7320          28          28
7330          23          33
7340          26          33
7350          25          33
7360          24          33
7370          26          28
7380          27          27
7390          25          30
7400          28          29
7410          25          32
7420          27          22
7430          26          30
7440          27          29
7450          23          33
7460          26          29
7470          24          33
7480          25          30
7490          25          30
7500          25          31
7510          25          29
7520          25          32
7530          27          29
7540          24          29
7550          21          33
7560          25          24
7570          27          27
7580          26          26
7590          22          30
7600          22          29
7610          21          30
7620          20          32
7630          25          29
7640          25          32
7650          24          28
7660          27          27
7670          26          23
7680          27          28
7690          27          30
7700          27          31
7710          26          30
7720          28          23
7730          25          30
7740          26          26
7750          23          31
7760          21          30
7770          25          29
7780          24          29
7790          25          26
7800          28          20
7810          26          25
7820          28          25
7830          27          22
7840          27          27
7850          28          24
7860          21          34
7870          22          31
7880          25          30
7890          25          30
7900          25          30
7910          27          28
7920          29          26
7930          24          31
7940          23          25
7950          29          29
7960          24          27
7970          25          30
7980          23          26
7990          24          29
8000          25          32
8010          23          25
8020          23          31
8030          26          29
8040          25          30
8050          25          32
8060          26          28
8070          23          36
8080          27          27
8090          25          29
8100          26          34
8110          22          34
8120          23          36
8130          27          26
8140          24          29
8150          27          28
8160          25          28
8170          26          33
8180          26          30
8190          24          32
8200          27          31
8210          24          31
8220          27          27
8230          25          29
8240          27          30
8250          26          31
8260          27          25
8270          26          29
8280          27          29
8290          25          31
8300          26          31
8310          28          29
8320          24          34
8330          28          26
8340          25          27
8350          27          35
8360          25          30
8370          27          26
8380          26          28
8390          25          31
8400          22          30
8410          26          26
8420          26          25
8430          25          30
8440          27          29
8450          25          29
8460          29          24
8470          26          32
8480          22          34
8490          27          24
8500          25          28
8510          27          29
8520          26          27
8530          28          25
8540          25          29
8550          27          23
8560          26          31
8570          26          29
8580          28          26
8590          26          29
8600          26          26
8610          28          30
8620          21          32
8630          24          37
8640          25          31
8650          25          30
8660          24          33
8670          27          31
8680          22          32
8690          24          31
8700          22          34
8710          24          33
8720          25          28
8730          23          30
8740          22          29
8750          25          28
8760          29          26
8770          26          32
8780          25          27
8790          24          31
8800          25          30
8810          25          31
8820          20          29
8830          28          25
8840          24          33
8850          24          33
8860          27          27
8870          22          36
8880          25          33
8890          25          27
8900          23          28
8910          24          33
8920          27          26
8930          28          26
8940          26          25
8950          28          25
8960          25          33
8970          26          33
8980          22          30
8990          27          27
9000          30          22
9010          23          29
9020          23          32
9030          22          32
9040          24          32
9050          31          20
9060          25          34
9070          27          26
9080          27          31
9090          24          37
9100          26          27
9110          23          38
9120          26          31
9130          25          32
9140          26          29
9150          23          30
9160          23          28
9170          26          29
9180          25          29
9190          27          25
9200          26          27
9210          24          30
9220          26          25
9230          25          30
9240          25          28
9250          29          22
9260          24          33
9270          27          27
9280          28          26
9290          27          25
9300          28          22
9310          28          26
9320          24          30
9330          26          23
9340          28          29
9350          26          26
9360          26          25
9370          26          28
9380          25          26
9390          24          32
9400          26          29
9410          23          26
9420          27          31
9430          26          26
9440          23          20
9450          24          30
9460          26          21
9470          24          27
9480          22          28
9490          26          29
9500          31          26
9510          21          29
9520          27          27
9530          21          29
9540          22          32
9550          21          33
9560          23          30
9570          20          37
9580          25          31
9590          23          33
9600          26          31
9610          25          33
9620          26          36
9630          25          28
9640          28          29
9650          26          26
9660          26          25
9670          24          29
9680          23          32
9690          25          30
9700          24          29
9710          26          27
9720          25          35
9730          28          25
9740          25          31
9750          26          34
9760          26          33
9770          29          26
9780          25          29
9790          25          38
9800          28          31
9810          27          35
9820          24          39
9830          25          29
9840          28          32
9850          28          26
9860          26          25
9870          27          23
9880          26          27
9890          25          28
9900          23          25
9910          27          30
9920          22          33
9930          27          26
9940          27          32
9950          23          24
9960          24          31
9970          26          30
9980          23          37
9990          25          30
10000          28          29
