Time   C(t)   
ps   
0           1           1  1.14382e-10   0.0183706
10    0.819671    0.849435    0.718489   0.0105803
20    0.788395    0.823321   -0.528045  0.00278996
30    0.763872    0.802846    -1.10918  0.00213792
40    0.745636     0.78762    0.964457  0.00186934
50    0.726485     0.77163    0.216584  0.00163379
60     0.71296    0.760338   -0.780579  0.00131474
70     0.70019    0.749675     -1.1949  0.00120003
80     0.68896    0.740299    -1.44646  0.00115354
90    0.677119    0.730413   -0.699805  0.00116072
100    0.665745    0.720916    -2.85851  0.00117291
110    0.653661    0.710826   -0.949745  0.00102296
120    0.645286    0.703834    0.128192  0.000818643
130    0.637288    0.697156    -1.11729  0.000943387
140    0.626419     0.68808    -4.10529  0.000955045
150    0.618187    0.681208   -0.786252  0.000942293
160    0.607573    0.672345    -2.44516  0.00089964
170    0.600195    0.666185    -2.44662  0.000807756
180    0.591418    0.658856    -1.53388  0.000784579
190    0.584503    0.653083    -1.28597  0.000776353
200     0.57589    0.645892     -2.0336  0.000787783
210    0.568747    0.639928    -2.36609  0.00073984
220    0.561094    0.633538    -1.20309  0.00062207
230    0.556306     0.62954      -2.034  0.000563827
240    0.549817    0.624122     -2.3669  0.000714263
250    0.542021    0.617613    -0.70702  0.000745544
260    0.534906    0.611673    0.039961  0.000712198
270    0.527777     0.60572    -2.78293  0.000613779
280    0.522631    0.601423   -0.873754  0.000630137
290    0.515174    0.595197    -0.62422  0.000706401
300    0.508503    0.589627   -0.957607  0.000607714
310     0.50302    0.585049     1.11692  0.000664179
320    0.495219    0.578536    -1.12361  0.000710614
330    0.488807    0.573183    -2.36998  0.000752336
340    0.480172    0.565973    0.370268  0.000703478
350    0.474738    0.561435     -1.1254  0.000589329
360    0.468386    0.556132   -0.543852  0.00061066
370    0.462525    0.551238   -0.461214  0.00066743
380    0.455037    0.544986   -0.792089  0.000441439
390    0.453696    0.543866   -0.711397  0.000457849
400     0.44588    0.537341    -1.29205  0.000605266
410    0.441591    0.533759    -1.04341  0.00037366
420    0.438407    0.531101    -2.53761  0.000435354
430    0.432884    0.526489    -1.62479  0.000613832
440     0.42613    0.520851    -2.45376  0.000518473
450    0.422514    0.517831    -1.54174  0.00037728
460    0.418585    0.514551    -2.45457  0.00043918
470     0.41373    0.510497    -3.11907  0.000383951
480    0.410906    0.508139    -2.87051  0.000277698
490    0.408177     0.50586    -2.78909  0.000584851
500    0.399209    0.498373    -1.12783  0.000534582
510    0.397485    0.496933    -2.20714  0.000351784
520    0.392173    0.492498   -0.879103  0.000459976
530    0.388285    0.489252   -0.796709  0.000419971
540    0.383774    0.485485   -0.962876  0.000425971
550    0.379766    0.482139    -1.12985  0.000421748
560    0.375339    0.478442    -2.29229  0.00036599
570    0.372446    0.476027    -2.79006  0.000377169
580    0.367795    0.472144    -1.29675  0.000553255
590    0.361381    0.466789    -2.54239  0.000549181
600    0.356812    0.462973    -1.62981  0.000379863
610    0.353784    0.460445    -1.54612  0.000354864
620    0.349714    0.457048    -3.04033  0.000350407
630    0.346776    0.454594    -1.13123  0.000195639
640    0.345802    0.453781    -1.71302  0.000185753
650    0.343061    0.451492    -1.54669  0.000284815
660    0.340105    0.449025   -0.386195  0.000332235
670    0.336416    0.445944    -1.46446  0.000395408
680    0.332197    0.442422    -2.79249  0.000443169
690    0.327552    0.438544    -2.37736  0.000266634
700    0.326864    0.437969    -3.04235  0.000251734
710    0.322518     0.43434     -1.4651  0.000398533
720    0.318894    0.431314    -2.95882  0.000284246
730    0.316833    0.429593    -2.70986  0.000263979
740    0.313614    0.426906    -2.04778  0.000500621
750     0.30682    0.421234    -1.71423  0.000385939
760    0.305895    0.420461    -2.79468  0.000203036
770     0.30276    0.417843    -3.45894  0.000356023
780    0.298775    0.414516    -2.96044  0.000309317
790    0.296573    0.412678    -2.96101  0.000299537
800    0.292784    0.409514    -3.45927  0.000363481
810    0.289304    0.406608    -3.79095  0.000316715
820     0.28645    0.404225    -1.88202  0.000349188
830     0.28232    0.400777    -2.46316  0.000291589
840    0.280618    0.399356    -2.79574  0.000234009
850     0.27764    0.396869    -2.13196  0.000324729
860    0.274124    0.393933     -2.1318  0.00034668
870    0.270706     0.39108     -1.3853  0.000294219
880    0.268239     0.38902    -1.55131  0.000241651
890    0.265873    0.387045   -0.222866  0.000231506
900    0.263609    0.385154    -2.21549  0.000354832
910    0.258777     0.38112    -3.04511  0.000259258
920    0.258424    0.380825    -2.29853  0.000211917
930    0.254538    0.377581    -3.62673  0.000303267
940    0.252359    0.375761    -2.96312  0.000228933
950     0.24996    0.373758    -3.29578  0.000309967
960    0.246159    0.370585    -2.21654  0.000375088
970    0.242458    0.367494    -1.96669  0.000349026
980    0.239179    0.364756     -2.4651  0.000365968
990    0.235138    0.361383     -1.7178  0.000312815
1000    0.232922    0.359533    -2.21606  0.000270426
1010     0.22973    0.356867    -2.38255  0.000341229
1020    0.226098    0.353835   -0.888019  0.000298678
1030    0.223756     0.35188     -1.1382  0.000185658
1040    0.222385    0.350734    -1.88494  0.000213247
1050    0.219491    0.348319    -3.21338  0.000267917
1060    0.217026     0.34626    -2.30048  0.000317466
1070    0.213142    0.343017    -1.63654  0.000263702
1080    0.211752    0.341857    -1.96839  0.000237181
1090    0.208399    0.339057    -1.96928  0.000270318
1100    0.206346    0.337343    -2.71618  0.000265553
1110    0.203087    0.334622    -2.54961  0.000282478
1120    0.200696    0.332626    -1.80327  0.000190121
1130    0.199285    0.331447    -1.63784  0.000234441
1140    0.196008    0.328711   -0.641809  0.000262301
1150    0.194039    0.327067    -2.21914  0.000279436
1160    0.190419    0.324045    -2.88356  0.00031845
1170     0.18767    0.321749    -2.80052  0.000308225
1180    0.184254    0.318898    -2.63451  0.000330912
1190    0.181052    0.316224    -1.80417  0.000298584
1200    0.178283    0.313912    -1.05792  0.000271682
1210    0.175618    0.311687    -1.63873  0.000172792
1220    0.174827    0.311026     -1.5565  0.000306126
1230    0.169496    0.306575   -0.974467  0.000378602
1240    0.167255    0.304704   -0.974467  0.000202136
1250    0.165453    0.303199     -1.1408  0.000135961
1260    0.164536    0.302434   -0.726149  8.62882e-05
1270    0.163727    0.301759   -0.975764  0.000114323
1280    0.162249    0.300524   -0.643835  0.000153554
1290    0.160656    0.299194   0.0207506  9.81204e-05
1300    0.160287    0.298886    0.021156  1.46218e-05
1310    0.160364     0.29895   -0.477102  0.000148895
1320    0.157309      0.2964    -0.39422  0.000171454
1330    0.156935    0.296087    -1.39049  5.9896e-05
1340    0.156111    0.295399   -0.227892  0.000121736
1350      0.1545    0.294054   -0.476616  6.57931e-05
1360    0.154795    0.294301   -0.145416  -7.4552e-05
1370    0.155991    0.295299   -0.478642  9.78485e-06
1380    0.154599    0.294137  -0.0631027  9.42282e-05
1390    0.154106    0.293726   -0.644078  1.54875e-05
1400     0.15429    0.293879   0.0200213  4.24385e-06
1410    0.154021    0.293655    -0.64497  0.000123044
1420    0.151829    0.291824    0.434344  0.000100571
1430     0.15201    0.291975    0.101929  0.000100924
1440     0.14981    0.290139   -0.478884  0.000169151
1450    0.148627    0.289151   -0.312799  0.000141203
1460    0.146986    0.287781   -0.312555  0.000130124
1470    0.146025    0.286978   -0.146956  9.05767e-05
1480    0.145175    0.286268    -1.22635  0.000125021
1490    0.143524     0.28489    -1.22619  0.000159536
1500    0.141984    0.283604    -1.89005  0.000148483
1510    0.140554    0.282411    -1.22635  9.16012e-05
1520    0.140152    0.282075    -1.55828  7.46839e-05
1530    0.139061    0.281163    -1.14371  0.000149409
1540    0.137164     0.27958   -0.313042  0.00013248
1550    0.136411    0.278951   -0.230729  0.000127111
1560    0.134622    0.277457  -0.0643186  0.000138874
1570    0.133634    0.276632    0.184648  0.000116182
1580    0.132298    0.275517   -0.147605  1.2546e-05
1590    0.133383    0.276423   -0.480181  8.78513e-05
1600    0.130541     0.27405     1.01443  0.000110963
1610    0.131164     0.27457    0.682499  4.19222e-05
1620    0.129702     0.27335   -0.313933  0.000157895
1630    0.128006    0.271933    0.101686  0.000140835
1640    0.126886    0.270998   -0.396409  -4.12911e-06
1650    0.128088    0.272002    0.598565  8.91298e-05
1660    0.125103     0.26951     0.84891  0.00014736
1670    0.125141    0.269541    0.184648  -9.62317e-06
1680    0.125296     0.26967   -0.563062  6.04544e-05
1690    0.123932    0.268532   -0.231053  0.00013653
1700    0.122565     0.26739    -1.22684  3.14675e-05
1710    0.123303    0.268006  -0.0652914  7.27028e-05
1720    0.121111    0.266176   -0.230891  0.000137268
1730    0.120557    0.265714   -0.231782  8.48085e-05
1740    0.119415     0.26476   -0.148091  0.000120283
1750    0.118152    0.263705    0.266555  0.000108798
1760    0.117239    0.262943   0.0175082  0.00017985
1770    0.114555    0.260702    -0.48002  2.66362e-05
1780    0.116706    0.262499   -0.563225  -6.7595e-05
1790    0.115906    0.261831    -1.39309  0.000180686
1800    0.113092    0.259481   -0.563224  0.000151365
1810    0.112879    0.259303   -0.480101  3.32132e-05
1820    0.112428    0.258927   -0.564035  7.4875e-05
1830    0.111382    0.258053   -0.148335  8.69196e-05
1840     0.11069    0.257475    0.184081  5.1415e-05
1850    0.110353    0.257194   0.0175888  6.94547e-05
1860    0.109301    0.256315    0.101038  0.000159143
1870    0.107171    0.254537   -0.396815  8.1753e-05
1880    0.107666     0.25495   -0.812677  0.000141963
1890    0.104331    0.252166    0.433047  0.000202007
1900    0.103625    0.251577   -0.397625  6.46684e-05
1910    0.103038    0.251086   -0.314015  9.48686e-05
1920    0.101728    0.249993   -0.895315  0.000101081
1930    0.101016    0.249398   -0.977952  6.5235e-05
1940    0.100423    0.248903   -0.978357  7.14309e-05
1950   0.0995877    0.248206   -0.147848  9.57403e-05
1960   0.0985085    0.247305   -0.895234   0.0001141
1970   0.0973057      0.2463   -0.978277  5.99075e-05
1980   0.0973104    0.246304   -0.397788  8.43775e-05
1990   0.0956181    0.244891    -1.72542  9.05443e-05
2000   0.0954995    0.244792   -0.895558  3.01175e-05
2010   0.0950158    0.244388    -1.22732  0.000103169
2020   0.0934361    0.243069   -0.397706  5.46277e-05
2030   0.0939232    0.243476   -0.397301  -7.92596e-05
2040   0.0950213    0.244393    0.183188  1.21616e-05
2050     0.09368    0.243273   0.0170214  9.15151e-05
2060    0.093191    0.242865    0.100227  -6.1322e-06
2070   0.0938026    0.243375   0.0995776  3.68174e-05
2080   0.0924546     0.24225     0.92952  0.000165659
2090   0.0904895    0.240609      1.1793  0.000129177
2100   0.0898711    0.240093    0.846721  4.96048e-05
2110   0.0894974    0.239781     0.43175  9.2867e-05
2120   0.0880138    0.238542    0.764245  0.000148543
2130   0.0865265      0.2373    0.432641  5.01044e-05
2140   0.0870117    0.237705    0.348707  6.27328e-05
2150   0.0852719    0.236253   -0.979006  5.65592e-05
2160   0.0858805    0.236761    -1.06197  0.000112637
2170   0.0830191    0.234372   -0.812434  0.000156163
2180   0.0827572    0.234153   -0.481154  0.000144308
2190   0.0801329    0.231962   -0.480992  0.00020675
2200   0.0786222    0.230701   0.0997408  0.000207344
2210   0.0759861      0.2285   0.0999836  0.000189091
2220   0.0748404    0.227543     0.76384  1.47551e-05
2230    0.075691    0.228253    0.182378  8.66912e-06
2240    0.074667    0.227398   0.0994164  2.73611e-05
2250   0.0751437    0.227796    0.347815  0.000134135
2260   0.0719843    0.225158    0.929764  5.26186e-05
2270   0.0740914    0.226918      1.0948  4.68131e-05
2280   0.0710481    0.224377     1.01232  7.80694e-05
2290     0.07253    0.225614     1.01192  6.5957e-05
2300   0.0697289    0.223275    0.431669  0.000198413
2310   0.0685617    0.222301    0.846397  0.000173757
2320   0.0662538    0.220374     0.92944  0.000199446
2330   0.0645728     0.21897    0.348059  0.000187327
2340   0.0625073    0.217246  -0.0665068  3.55162e-05
2350   0.0638625    0.218377   -0.565575  1.04226e-05
2360   0.0622988    0.217071   -0.979817  8.65929e-05
2370   0.0621306    0.216931    0.679582  0.00015062
2380   0.0592864    0.214556   -0.399327  0.000138078
2390   0.0593691    0.214625    0.347167  -1.46586e-05
2400   0.0595796    0.214801    0.762543  -8.28281e-06
2410   0.0595347    0.214764     0.43021  0.000158178
2420    0.056416     0.21216    0.846073  0.000126324
2430   0.0570082    0.212654    0.763111  2.41745e-05
2440   0.0559325    0.211756    0.347897  8.19921e-05
2450   0.0553684    0.211285   -0.150442  6.93645e-05
2460   0.0545452    0.210598    0.430535  0.000114658
2470   0.0530752     0.20937    0.928387  0.000108463
2480    0.052376    0.208786    0.347167  4.41674e-05
2490   0.0521919    0.208633   -0.317419  0.000128464
2500   0.0498067    0.206641   0.0982822  0.000180502
2510   0.0485818    0.205619  -0.0675608  9.02114e-05
2520   0.0480025    0.205135    0.513496  4.5008e-05
2530   0.0476817    0.204867     1.50888  1.9116e-05
2540   0.0476202    0.204816    0.512767  0.000162529
2550   0.0444311    0.202153   -0.566142  0.000221475
2560   0.0431907    0.201117   -0.234295  0.00016994
2570   0.0410323    0.199315    -1.64505    0.000118
2580   0.0408307    0.199147    -1.14752  0.000210159
2590   0.0368291    0.195806    -1.47921  0.000269501
2600   0.0354406    0.194646    -1.22967  0.000191592
2610   0.0329973    0.192606    -1.31296  0.000152579
2620    0.032389    0.192098   -0.317419  0.000126766
2630    0.030462    0.190489   -0.815271  0.000159995
2640   0.0291891    0.189427   -0.400543  6.80252e-05
2650   0.0291015    0.189354   -0.234538  4.18394e-05
2660   0.0283523    0.188728    -0.15182  2.8662e-05
2670   0.0285282    0.188875   -0.317986  -4.35822e-06
2680   0.0284395    0.188801   -0.649915  -4.38849e-06
2690    0.028616    0.188948   -0.649834  8.92254e-06
2700   0.0282611    0.188652   0.0141042  4.22016e-05
2710    0.027772    0.188243   0.0141036  6.23115e-05
2720   0.0270148    0.187611    -1.06537  0.000169294
2730   0.0243861    0.185416    -1.23113  0.000142882
2740   0.0241572    0.185225   -0.982573  5.6406e-05
2750    0.023258    0.184475    0.179298  8.33378e-05
2760   0.0224904    0.183834   -0.152387  -3.7275e-05
2770   0.0240035    0.185097   -0.484721  3.00122e-05
2780   0.0218902    0.183333   -0.318392  0.000103901
2790   0.0219255    0.183362   -0.318716  -1.02717e-05
2800   0.0220956    0.183504  -0.0697493  4.37186e-05
2810   0.0210511    0.182632    -1.14866  0.000118118
2820   0.0197333    0.181532   -0.152306  0.000179359
2830   0.0174639    0.179637    0.677555  7.81078e-05
2840   0.0181711    0.180227    0.926522  5.81658e-05
2850   0.0163006    0.178666    0.926603  9.21399e-05
2860   0.0163283    0.178689    0.677474  7.89153e-05
2870   0.0147223    0.177348   0.0131315  8.58364e-05
2880   0.0146116    0.177255   -0.484964  9.98408e-05
2890   0.0127255     0.17568    -1.23146  1.11222e-05
2900   0.0143891     0.17707   -0.733768  -3.65227e-05
2910   0.0134559     0.17629    0.178974  7.28858e-05
2920   0.0129314    0.175852    0.096174  -2.40486e-06
2930    0.013504    0.176331    0.676826  -3.67102e-05
2940   0.0136656    0.176465    0.676826  -5.06102e-05
2950   0.0145162    0.177176     1.25764  4.45279e-06
2960   0.0135766    0.176391       1.009  3.88625e-05
2970    0.013739    0.176527    0.925873  -3.00907e-05
2980   0.0141784    0.176894    0.510983  -3.70849e-05
2990   0.0144807    0.177146      1.2574  4.40101e-06
3000   0.0140904     0.17682     1.58997  -3.03504e-05
3010   0.0150877    0.177653     1.75573  -0.000134648
3020   0.0167833    0.179069      1.3402  -7.92795e-05
3030   0.0166733    0.178977     1.92125  0.000150513
3040   0.0137731    0.176555     1.59046  3.20147e-05
3050    0.016033    0.178442     1.75573  -6.5441e-05
3060   0.0150819    0.177648     1.42405  0.000116252
3070   0.0137079    0.176501     2.66961  4.64099e-05
3080   0.0141537    0.176873     1.50734  3.26321e-05
3090   0.0130553    0.175956    0.926603  -6.5871e-05
3100   0.0154711    0.177973    0.344979  -3.76311e-05
3110   0.0138079    0.176584    0.262665  6.77905e-05
3120   0.0141153    0.176841     1.25877  -3.78532e-05
3130    0.014565    0.177216    0.511389  -9.64715e-06
3140   0.0143083    0.177002    0.428508  -4.51535e-05
3150    0.015468     0.17797    0.179136  1.86839e-05
3160   0.0139346     0.17669     1.09196  7.5395e-05
3170   0.0139601    0.176711     1.09228  -1.67948e-05
3180   0.0142705     0.17697    0.261773  -2.39514e-05
3190   0.0144392    0.177111    0.178811  -1.68939e-05
3200   0.0146084    0.177253   0.0956877  -9.79439e-06
3210   0.0146351    0.177275  -0.0701548  3.3122e-05
3220   0.0139459    0.176699    0.511388  4.48851e-06
3230   0.0145453      0.1772   -0.651131  4.04973e-05
3240    0.013136    0.176023   0.0128074  9.08067e-05
3250   0.0127291    0.175684   -0.485532  6.23508e-05
3260    0.011889    0.174982   -0.485126  2.64357e-05
3270   0.0122004    0.175242    0.178569  -1.67466e-05
3280   0.0122239    0.175262    -1.48172  0.000113401
3290  0.00993242    0.173348    -1.14882  4.83651e-05
3300   0.0112566    0.174454    -1.31531  -9.26522e-06
3310   0.0101177    0.173503   -0.983383  1.9586e-05
3320   0.0108649    0.174127     -1.4814  -9.66534e-05
3330   0.0120508    0.175117    -3.05864  2.69943e-05
3340    0.010325    0.173676    -2.47759  2.6856e-05
3350   0.0115137    0.174669    -2.06343  -0.000111743
3360   0.0125598    0.175542    -1.73158  -5.35157e-05
3370    0.012584    0.175562    -2.81016  -9.0415e-05
3380   0.0143681    0.177052    -2.56225   6.365e-05
3390    0.011311    0.174499    -2.56136  0.000159091
3400   0.0111863    0.174395    -2.39568  0.000108238
3410  0.00914623    0.172692    -2.56152  0.000123169
3420  0.00872293    0.172339    -2.81033  2.02357e-05
3430  0.00874151    0.172354    -1.39973  8.69313e-05
3440  0.00698431    0.170887    -2.14639  5.74152e-05
3450  0.00759321    0.171395    -2.72736  8.74578e-05
3460  0.00523515    0.169426    -2.81041  -1.70437e-06
3470  0.00762729    0.171424    -3.39179  -0.000105571
3480  0.00734656    0.171189    -2.89402  -1.66244e-05
3490  0.00795978    0.171701    -3.22603  8.79405e-05
3500  0.00558775    0.169721    -3.22586  8.79816e-05
3510  0.00620015    0.170232    -3.47548  2.10647e-05
3520  0.00516646    0.169369    -2.81138  0.000111033
3530   0.0039795    0.168378    -3.30931  2.11967e-05
3540  0.00474252    0.169015    -3.14363  6.65653e-05
3550  0.00264819    0.167267    -3.64189    0.000157
3560  0.00160253    0.166393    -3.22659  0.000112278
3570  0.000402626    0.165392    -2.81146  6.72489e-05
3580  0.000257548     0.16527    -2.06432  2.96785e-05
3590  -0.000190944    0.164896    -2.23048  4.4917e-05
3600  -0.000640792     0.16452    -2.89426  4.50527e-05
3610   -0.001092    0.164144    -2.39665  1.47656e-05
3620  -0.000936105    0.164274    -3.14404  9.10637e-05
3630  -0.00291327    0.162623    -2.47986  9.88093e-05
3640  -0.00291229    0.162624    -2.39722  5.34122e-05
3650  -0.00398152    0.161731    -2.06489  -3.07198e-05
3660  -0.00229789    0.163137    -2.97868  -3.06012e-05
3670  -0.00336949    0.162242    -2.48067  8.42917e-05
3680  -0.00398373    0.161729    -2.14858  -2.40863e-08
3690  -0.00336901    0.162242     -1.4844  -2.3043e-05
3700  -0.00352287    0.162114    -1.98249  3.85618e-05
