Time   C(t)   
ps   
0           1           1  -3.90821e-11   0.0515076
10    0.492935    0.612445     7.83139   0.0286757
20    0.426485    0.561657     7.47589  0.00584385
30    0.376059    0.523115     7.12072  0.00361011
40    0.354283    0.506472     0.81019  0.00262945
50    0.323469    0.482921     2.91211  0.00236421
60    0.306999    0.470332     2.90663  0.00214438
70    0.280582    0.450141    -1.64586  0.00169712
80    0.273056    0.444389     3.25051  0.000866184
90    0.263258    0.436901   -0.250513  0.000890423
100    0.255248    0.430778    0.447502  0.000869694
110    0.245864    0.423606    -5.85756  0.00046378
120    0.245972    0.423689    -3.05968  0.000623877
130    0.233387     0.41407     1.14518  0.00103293
140    0.225314    0.407899    -3.41005  0.00101254
150    0.213136    0.398592    -3.05797  0.000946175
160     0.20639    0.393436    -1.65988  0.000470418
170    0.203728    0.391401     -6.2117  -0.000189113
180    0.210172    0.396327    -7.96494  0.000130254
190    0.201122     0.38941    -13.5669  0.000883085
200    0.192511    0.382828   -0.257695  -0.000600513
210    0.213133    0.398589    -6.57131  -0.00025709
220    0.197653    0.386758    -2.36611   0.0010458
230    0.192217    0.382603    -4.81532  0.00061292
240    0.185394    0.377388    -5.86064  -0.000189015
250    0.195997    0.385492    -2.71717  0.000339799
260    0.178598    0.372194    0.437244  0.00128179
270    0.170361    0.365898    0.086525  0.000571366
280    0.167171     0.36346   -0.611834  -0.000187544
290    0.174112    0.368765     2.88372  8.93705e-05
300    0.165383    0.362094    -2.01573  0.000827573
310     0.15756    0.356115     4.28659  0.000112844
320    0.163127    0.360369   -0.266929  -0.000418367
330    0.165928     0.36251    0.428351  0.000159637
340    0.159934    0.357929    0.430062  0.000855044
350    0.148827     0.34944     6.73034  0.00125109
360    0.134912    0.338804    -4.12107  0.000208081
370    0.144665    0.346259    -3.77787  -0.000208876
380     0.13909    0.341997    -5.52633  0.000790969
390    0.128846    0.334168    -2.37226  0.000442796
400    0.130234    0.335229   -0.972469  0.000304354
410    0.122759    0.329516    -5.87363  -0.000139197
420    0.133018    0.337356    -5.52462  -0.000185319
430    0.126465    0.332348    -4.12585  0.000328273
440    0.126452    0.332338    -5.87637  1.31801e-06
450    0.126439    0.332328    -3.07473  -0.000233193
460    0.131116    0.335903    0.423563   0.0004239
470    0.117961    0.325848     3.58139  0.000682366
480    0.117469    0.325472    -2.37261  -0.000115408
490    0.120269    0.327613    -8.32968  -0.000139022
500    0.120249    0.327597    -2.02736  1.98446e-06
510    0.120229    0.327582    -5.88081  -0.000163211
520    0.123513    0.330092    0.420143  0.000521752
530    0.109794    0.319607     2.87654  0.000711138
540     0.10929    0.319222     1.12842  -0.000281007
550    0.115414    0.323902    -6.58122  0.000263862
560    0.104013    0.315188     7.08139  0.000477014
570    0.105874     0.31661     2.17647  5.12224e-05
580    0.102989    0.314405    -4.82969  0.000146185
590     0.10295    0.314376     6.37346  -0.000115162
600    0.105292    0.316165     1.11987  0.000551858
610   0.0919133     0.30594     3.92459  0.000719151
620    0.090909    0.305172     3.92425  -0.000162103
630   0.0951554    0.308418     6.02548  0.000244177
640   0.0860255     0.30144     10.9297  0.000483261
650   0.0854902    0.301031     9.17818  0.000341034
660   0.0792048    0.296227     4.97366  -0.000114154
670   0.0877733    0.302776     11.9733  -1.75796e-05
680   0.0795564    0.296495     10.9232  0.000942726
690   0.0689187    0.288365     9.52719  0.000583769
700    0.067881    0.287572     5.67476  -8.87778e-05
710   0.0706943    0.289722     8.82438  -4.05464e-05
720    0.068692    0.288192     7.77052  -4.08933e-05
730   0.0715122    0.290347     6.01864  5.59229e-05
740   0.0675735    0.287337     3.91638  0.000515234
750   0.0612075    0.282471      8.4723  0.000419364
760   0.0591862    0.280926     11.2726  0.000202353
770   0.0571604    0.279378     3.56737  -3.98619e-05
780   0.0599835    0.281536     13.7242  -0.000112571
790   0.0594118    0.281099     15.8234  0.000592238
800   0.0481387    0.272483     11.2736  0.000519915
810   0.0490135    0.273151     13.7238  -6.32087e-05
820   0.0494029    0.273449      7.4198  9.8221e-06
830   0.0488171    0.273001     11.2719  -0.000356572
840   0.0565343    0.278899     3.21939  -0.000723674
850   0.0632906    0.284063   -0.287106  -0.000284709
860   0.0622285    0.283252     2.86662  0.00027786
870   0.0577334    0.279816     9.52035  3.29623e-05
880   0.0615693    0.282748     10.2225  -0.000457686
890   0.0668871    0.286812     7.41706  0.000131446
900   0.0589403    0.280738     8.12158  0.000229457
910   0.0622979    0.283305     6.71871  -1.58135e-05
920   0.0592566     0.28098     3.56737  0.000230469
930   0.0576886    0.279782     4.26778  0.000428615
940   0.0506843    0.274428     13.7235  0.000750636
950   0.0426759    0.268307      2.8673  0.00055425
960   0.0395993    0.265956     10.5735  -0.000137979
970   0.0454354    0.270416     9.17031  -0.000137788
980   0.0423551    0.268062     10.5663  0.000531847
990   0.0347985    0.262287     13.3714  0.000607356
1000   0.0302079    0.258778     13.7194  0.000136039
1010   0.0320777    0.260207     13.0166  0.00041075
1020   0.0219929    0.252499      10.218  6.18127e-05
1030   0.0308415    0.259262     6.71426  1.30742e-05
1040   0.0217315    0.252299     5.66553  0.000237074
1050      0.0261    0.255638     12.3179  -1.19044e-05
1060   0.0219695    0.252481      10.218  -0.00026294
1070   0.0313588    0.259658     8.11098  -0.000513583
1080   0.0322412    0.260332     6.00838  0.000137645
1090   0.0286059    0.257553      3.9092  1.20057e-05
1100   0.0320011    0.260148     2.85944  -0.000314735
1110   0.0349006    0.262365     11.6117  0.000112832
1120   0.0297444    0.258424     6.70879  0.000289199
1130   0.0291166    0.257944     8.11337  0.000214357
1140   0.0254573    0.255147     16.1659  3.77057e-05
1150   0.0283625    0.257367     9.85944  -1.24561e-05
1160   0.0257064    0.255337     8.45793  0.000468613
1170   0.0189902    0.250204     6.00975  0.000114318
1180   0.0234201     0.25359     7.40988  -0.000367291
1190    0.026336    0.255819     7.75752  1.31502e-05
1200   0.0231571    0.253389     7.75684  0.000445527
1210   0.0174255    0.249008     11.2585  0.000115131
1220   0.0208544    0.251629     15.1113  -0.000190218
1230   0.0212299    0.251916     14.7603  0.000141195
1240   0.0180306    0.249471     12.3069  0.000703835
1250  0.00715316    0.241157       11.96  0.000602614
1260  0.00597826    0.240259     15.4624  -8.73996e-05
1270  0.00890115    0.242493     14.0602  -0.000189994
1280  0.00977813    0.243163     13.7122  6.63242e-05
1290  0.00757467    0.241479     11.6082  9.20134e-05
1300  0.00793787    0.241757     11.2582  -0.000165085
1310   0.0108764    0.244003     9.15732  -6.22124e-05
1320  0.00918211    0.242708     9.15492  -0.000217459
1330   0.0152256    0.247327     9.85533  -0.000269184
1340   0.0145658    0.246822     10.2074  0.000221238
1350   0.0108008    0.243945       9.158  0.00011799
1360    0.012206    0.245019     9.15492  -0.000529554
1370   0.0213919     0.25204     12.3066  -0.000426513
1380   0.0207363    0.251539     14.0585  0.000247536
1390   0.0164412    0.248256     16.8608  -0.000194358
1400   0.0246234     0.25451     10.9054  -0.000610811
1410   0.0286574    0.257593     7.05472  0.000274099
1420   0.0191414     0.25032     9.50838  0.000613328
1430   0.0163908    0.248217     11.9607  0.000170834
1440   0.0157248    0.247708     14.7592  -0.000613663
1450   0.0286641    0.257598      8.4528  -0.000378527
1460   0.0232953    0.253495     4.95246  0.000380145
1470   0.0210612    0.251787   -0.998802  -9.14373e-05
1480    0.025124    0.254892      7.0513  -0.000196448
1490   0.0249901     0.25479      4.9528  0.000118687
1500   0.0227503    0.253078     1.44973  -0.000118324
1510   0.0273566    0.256599     1.09901  -0.00030288
1520   0.0288079    0.257708      2.1498  0.000171678
1530   0.0239231    0.253974     0.39723   0.0002246
1540   0.0243159    0.254275     2.85055  -6.58018e-05
1550   0.0252391     0.25498     2.50017  0.000146146
1560    0.021393    0.252041     2.15082  6.65855e-05
1570   0.0239074    0.253962     7.40133  1.39729e-05
1580   0.0211135    0.251827     4.60345  6.69013e-05
1590   0.0225694     0.25294     5.65458  4.06828e-05
1600   0.0202999    0.251205     7.05369  0.000147216
1610    0.019625    0.250689     6.70605  -9.26187e-05
1620   0.0221522    0.252621     8.45554  9.4468e-05
1630   0.0177357    0.249245     2.15322  6.75076e-05
1640   0.0208021    0.251589     4.95314  -0.000280205
1650   0.0233398    0.253529     1.80079  -0.000254075
1660   0.0258836    0.255473     3.90133  -1.29611e-05
1670    0.023599    0.253727     4.95383  0.000148062
1680   0.0229223    0.253209     6.35465  4.08193e-05
1690   0.0227826    0.253103     4.25308  1.39944e-05
1700   0.0226424    0.252996     3.55267  0.000256923
1710   0.0176442    0.249175     2.85397  -0.000121038
1720   0.0250632    0.254846     7.05609  -0.000201739
1730   0.0216789    0.252259     6.00393  -0.00025706
1740   0.0302044    0.258775     1.45075  -0.000365433
1750   0.0289876    0.257845    0.050615  -0.00012254
1760   0.0326552    0.260648      3.1999  0.000230857
1770   0.0243705    0.254316     3.20468  0.000393993
1780   0.0247753    0.254626     4.60551  4.12247e-05
1790    0.023546    0.253686     2.50701  -0.000231613
1800   0.0294076    0.258166     13.0104  -0.000204437
1810   0.0276347    0.256811     6.35499  4.07608e-05
1820   0.0285924    0.257543       6.704  -0.000178039
1830   0.0311955    0.259533     5.30421  -4.12969e-05
1840   0.0294183    0.258174     2.15424  0.000150491
1850   0.0281857    0.257232     2.15458  -0.000178925
1860   0.0329968    0.260909     1.80147  -0.000619293
1870   0.0405716    0.266699     2.50085  -0.000400222
1880   0.0410012    0.267027    0.749658  0.000398366
1890   0.0326042    0.260609      1.8025  0.000730254
1900   0.0263962    0.255865     4.25582  0.000317363
1910    0.026257    0.255758     2.50496  -0.000207572
1920   0.0305476    0.259038    -1.34781  -0.000346424
1930   0.0331854    0.261054     2.85602  -1.42888e-05
1940   0.0308334    0.259256     2.15493  -0.000403734
1950   0.0412601    0.267225     0.40407  -0.000765692
1960   0.0461472     0.27096    -2.04959  -0.000154985
1970   0.0443598    0.269594    0.400309  0.000318451
1980   0.0397782    0.266093   0.0543779  0.000207346
1990   0.0402129    0.266425    -1.69956  -0.00026725
2000   0.0451232    0.270178     2.15082  1.23762e-05
2010   0.0399654    0.266236     1.10106  0.00034821
2020    0.038159    0.264855    -1.35021  0.000349288
2030   0.0329796    0.260896    -4.50188  0.000293746
2040   0.0322841    0.260365    -2.40031  -4.29345e-05
2050   0.0338383    0.261553    0.751368  -0.000127437
2060   0.0348328    0.262313    -1.35157  0.000351831
2070   0.0268017    0.256174   -0.996751  1.31696e-05
2080   0.0345694    0.262111    -1.35191  -1.40899e-05
2090   0.0270835     0.25639    -3.09935  0.000324747
2100   0.0280745    0.257147    -3.10175  9.9265e-05
2110   0.0250982    0.254872      1.1014  0.000127659
2120   0.0255213    0.255196     5.65356  4.29131e-05
2130   0.0242399    0.254216     2.50393   0.0002137
2140   0.0212473    0.251929     3.90475  0.000527642
2150   0.0136871    0.246151     -2.3986  0.000100639
2160   0.0192345    0.250391     4.25274  -0.000584031
2170   0.0253677    0.255078     6.70537  -0.00044243
2180   0.0280831    0.257154     2.50359  4.32153e-05
2190   0.0245034    0.254418     2.50086  0.000128964
2200   0.0255039    0.255183    -2.40441  0.000215747
2210   0.0201885     0.25112     1.10174  0.000244656
2220   0.0206107    0.251443      6.0053  -7.10812e-05
2230   0.0216101    0.252206     7.40681  0.000159422
2240   0.0174223    0.249006     4.60516  7.28964e-05
2250   0.0201521    0.251092      3.9027  -0.000157715
2260   0.0205766    0.251417     4.25513  0.000102218
2270   0.0181078     0.24953     1.45315  0.00027618
2280    0.015053    0.247195      1.4552  -0.000274492
2290   0.0235976    0.253726     2.85568  -0.000303509
2300   0.0211232    0.251834     6.70879  0.000102301
2310   0.0215516    0.252162     8.45827  -4.29015e-05
2320   0.0219812     0.25249     5.30626  0.000394528
2330   0.0136611    0.246131     5.65595  -4.31295e-05
2340   0.0228438    0.253149     8.10311  -0.000422287
2350   0.0221068    0.252586     8.80558  0.00024949
2360    0.017854    0.249336     8.10619  0.000103293
2370   0.0200409    0.251007     11.9603  -0.000218977
2380   0.0222335    0.252683     7.40681  -0.000513544
2390   0.0303118    0.258857     2.49846  -0.000573386
2400   0.0337012    0.261448     5.29839  0.000279626
2410   0.0247193    0.254583     8.10345  7.29393e-05
2420   0.0322425    0.260333     7.75274  -0.000575987
2430    0.036239    0.263388   0.0461696  0.000280474
2440    0.026633    0.256046     8.80352  0.000250686
2450   0.0312253    0.259555     8.10243  -0.000430172
2460   0.0352364    0.262621     7.40202  -0.000282793
2470   0.0368812    0.263878     10.2064  -0.000640716
2480   0.0480507    0.272415     4.59798  0.000251936
2490   0.0318424    0.260027     6.35362  0.000310446
2500   0.0418418     0.26767     6.70468  -7.52924e-05
2510   0.0333483    0.261178     5.30489  0.000252283
2520   0.0367961    0.263813     12.3049  -0.000255398
2530   0.0384562    0.265082     11.6062  -0.000406157
2540   0.0449193    0.270022     6.00051  -0.000166677
2550   0.0417898     0.26763     3.54993  0.00037351
2560   0.0374491    0.264312     2.15116  0.000314209
2570   0.0355056    0.262827     3.20092  -4.66038e-05
2580   0.0383812    0.265025     0.39894  -0.000529492
2590   0.0460955    0.270921     4.95007  -0.000802704
2600   0.0544352    0.277295     11.2527  -0.000169063
2610   0.0494767    0.273505     6.69716  0.000344947
2620   0.0475363    0.272022     4.59764  0.000315726
2630   0.0431622    0.268679     9.85294  0.000164427
2640   0.0442478    0.269509     8.10106  1.30547e-05
2650   0.0429011    0.268479     8.10072  0.000226287
2660    0.039722     0.26605      5.9988  -0.000536279
2670   0.0536267    0.276677     3.54241  7.47036e-05
2680   0.0382279    0.264908     5.64672  0.000715628
2690   0.0393141    0.265738     8.79976  0.000442888
2700   0.0293702    0.258138     8.80284  0.000351269
2710   0.0322887    0.260368     13.3553  -0.000322982
2720   0.0358298    0.263075     10.9044  -0.000631566
2730   0.0449201    0.270023     12.3015  -0.000263127
2740   0.0410924    0.267097     11.9508  0.00032158
2750   0.0384885    0.265107     14.0557  0.000229849
2760   0.0364954    0.263583     16.1577  0.00026147
2770   0.0332591     0.26111     11.9559  -1.67804e-05
2780    0.036831     0.26384     15.4549  -0.000388718
2790   0.0410334    0.267052     9.15321  -0.000110085
2800   0.0390327    0.265523     7.40202  -0.000266414
2810   0.0463617    0.271124     8.79976  -0.000391151
2820   0.0468557    0.271502     9.85363  0.000168956
2830   0.0429826    0.268542      8.8025  0.000356602
2840   0.0397237    0.266051     1.44733  -0.000205595
2850   0.0470945    0.271684     6.34884  -0.000268094
2860   0.0450856    0.270149     8.80147  0.00051496
2870   0.0367953    0.263813     3.90133  0.000107469
2880   0.0429362    0.268506     6.34918  -0.000394684
2890    0.044689    0.269846     1.09319  -4.94774e-05
2900   0.0439258    0.269263     2.14706  0.000265763
2910   0.0393737    0.265783     2.14672  -4.97602e-05
2920    0.044921    0.270023      4.2476  0.000203973
2930   0.0352942    0.262665     5.29976  0.000805582
2940   0.0288093    0.257709     1.79873  0.000236862
2950    0.030557    0.259045     1.44425  1.56594e-05
2960   0.0284961     0.25747     6.35055  0.000301862
2970   0.0245198     0.25443     8.80044  0.000302591
2980   0.0224443    0.252844     2.14706  -7.94042e-05
2990   0.0261079    0.255644     4.59901  4.86236e-05
3000   0.0214718    0.252101    -2.05369  0.000144198
3010   0.0232239     0.25344    0.748633  -0.000271625
3020   0.0269044    0.256253     2.84747  -0.000304369
3030   0.0293113    0.258093     3.54891  4.82649e-05
3040   0.0259391    0.255515     1.79771  0.000112368
3050   0.0270639    0.256375     3.19682  -0.000273834
3060   0.0314157    0.259701    -1.00599   4.845e-05
3070   0.0260949    0.255634    -2.40681  0.000306535
3080    0.025285    0.255015    -1.70708  0.00072866
3090   0.0115217    0.244496    -1.00256  0.000600137
3100   0.0132823    0.245841     -3.4552  -0.000338673
3110   0.0182952    0.249673     1.44699  -0.000111789
3120   0.0155181     0.24755     2.14398  -0.000405782
3130   0.0264108    0.255876    -2.05951  -0.000666869
3140   0.0288555    0.257744     1.44254  -0.000375485
3150   0.0339205    0.261615    -4.16142  1.61116e-05
3160   0.0285332    0.257498   -0.656635  0.00027746
3170   0.0283713    0.257374    -3.11132  0.000245847
3180   0.0236163     0.25374     1.79053  0.000180517
3190   0.0247609    0.254615     1.44254  -0.000213328
3200   0.0278828    0.257001    0.392441  -0.000576254
3210    0.036286    0.263423     1.09046  0.000247388
3220   0.0229351    0.253219    -5.90988  0.00097355
3230    0.016815    0.248542    -3.10893  0.000315049
3240   0.0166341    0.248403   -0.659713  0.000283274
3250   0.0111495    0.244211    -4.85978  0.000582471
3260  0.00498468      0.2395     1.44425  -0.000246939
3270   0.0160883    0.247986    0.393467  -0.000113217
3280  0.00724903     0.24123    -2.05711  5.16756e-05
3290   0.0150548    0.247196     3.19306  8.64608e-05
3300  0.00551981    0.239909   -0.309335   -1.49e-05
3310   0.0153528    0.247424   -0.310705  -0.000817315
3320   0.0218661    0.252402      3.5407  -0.00045105
3330   0.0243738    0.254319     1.08772  -4.95847e-05
3340   0.0228578     0.25316     3.19135  8.45356e-05
3350   0.0226831    0.253027     1.44289  0.000219665
3360   0.0184645    0.249802     5.64637  0.000624972
3370   0.0101836    0.243473     7.75034  -1.55686e-05
3380   0.0187759     0.25004     9.84952  -0.000522057
3390   0.0206248    0.251453     5.99607  0.000187722
3400   0.0150214    0.247171     2.14227  5.1932e-05
3410   0.0195861     0.25066     2.84063  -1.51486e-05
3420   0.0153244    0.247402     2.14022  0.000528981
3430  0.00900651    0.242573     8.09422  0.00049634
3440  0.00539761    0.239815     5.64296  -0.000185078
3450   0.0127081    0.245403     10.5451  -0.000355858
3460   0.0125148    0.245255     5.99299  0.00053328
3470  0.00204246    0.237251     3.19135  0.000225294
3480  0.00800887    0.241811     5.99538  -1.33179e-05
3490  0.00230882    0.237454       3.191  0.000192268
3500  0.00416351    0.238872   -0.660055  0.000262385
3510  -0.00293888    0.233443   -0.658687  8.98727e-05
3520  0.00236606    0.237498      2.1409  -1.26258e-05
3530  -0.00268636    0.233636    0.742475  0.000159695
3540  -0.000827848    0.235057     5.64364  -0.000255514
3550  0.00242393    0.237542     1.78882  -0.000429897
3560   0.0077701    0.241628   -0.311047  -0.000361483
3570  0.00965359    0.243068     7.04309  0.000368941
3580  0.000391289    0.235989     3.88936  0.000683353
3590  -0.00401347    0.232622     7.39449  0.00030133
3600  -0.0056353    0.231383      8.0973  9.2416e-05
3610  -0.00586179    0.231209      8.0949  -0.00011758
3620  -0.00328371     0.23318     5.29292  -0.000152855
3630  -0.00280469    0.233546     9.14501  9.27376e-05
3640  -0.00513846    0.231762      7.7459  -0.000224284
3650    0.001681    0.236974     2.14056  -0.000365423
3660  0.00217001    0.237348     2.84097  -0.000367078
3670  0.00902256    0.242586     6.34029  -0.000438538
3680   0.0109408    0.244052     3.53728  -0.000121213
3690   0.0114468    0.244439     3.53899  0.000197903
3700  0.00698271    0.241027     4.58977  0.000340416
3710   0.0046385    0.239235     4.23906  0.000591047
3720  -0.00483824    0.231992     6.69237  0.000449631
3730  -0.00435411    0.232362    0.737687  -0.000477363
3740  0.00470902    0.239289     3.18793  -4.8646e-05
3750  -0.00338119    0.233105    -4.16416  0.000631054
3760  -0.00791205    0.229642    -1.36423  0.000346079
3770  -0.0103028    0.227815    -2.41262  0.000167512
3780  -0.0112623    0.227082   -0.311389  0.000132136
3790  -0.0129455    0.225795     3.18964  0.00042119
3800  -0.0196861    0.220643     3.54036  -8.38689e-05
3810  -0.0112681    0.227077     3.88697  -0.000408732
3820  -0.0115115    0.226891     6.33926  9.68942e-05
3830   -0.013206    0.225596     6.68861  0.000315006
3840  -0.0178116    0.222076     5.28916  0.00038855
3850   -0.020977    0.219657     1.43673  9.84256e-05
3860  -0.0197801    0.220572     4.23871  -4.68855e-05
3870  -0.0200393    0.220373     3.18724  -4.71564e-05
3880   -0.018837    0.221292     4.58806  0.000209131
3890  -0.0242219    0.217177     2.83823  0.000209277
3900  -0.0230225    0.218093    0.385943  0.000283974
3910  -0.0299014    0.212836    0.386285  2.66592e-05
3920  -0.0235557    0.217686      3.1869  -0.000451312
3930  -0.0208751    0.219735   -0.315151  -0.000157752
3940  -0.0204007    0.220097    -1.36765  0.000174356
3950  -0.0243623    0.217069    0.386969  0.000285696
3960  -0.0261146     0.21573     2.48512  0.00017552
3970  -0.0278726    0.214386    0.733925  -8.4055e-05
3980  -0.0244335    0.217015     2.48239  -0.000307254
3990  -0.0217276    0.219083     3.88389  -0.000532062
4000  -0.0137922    0.225148     8.78642  -0.000271957
4010  -0.0162884     0.22324     5.63646  -1.18498e-05
4020  -0.0135552    0.225329     2.13133  0.000175928
4030   -0.019807    0.220551    -1.02069  0.000588687
4040   -0.025329     0.21633   -0.320282  -1.08935e-05
4050  -0.0195891    0.220718    -0.66929  -0.000122981
4060  -0.0228694     0.21821     3.88286  -0.000161883
4070  -0.0163515    0.223192     2.13133  -0.000350563
4080  -0.0158581    0.223569     4.23153  0.000291291
4090  -0.0221773    0.218739     5.63372  0.000481308
4100  -0.0254842    0.216212   0.0314629  0.000483192
4110  -0.0318411    0.211353    -2.76813  0.000560676
4120  -0.0366978    0.207641   -0.316863  -0.000275791
4130  -0.0263253    0.215569     1.78334  -0.000771765
4140  -0.0212625    0.219439    0.381839  -8.64589e-05
4150  -0.0245961    0.216891     2.13509  0.000563798
4160  -0.0325384     0.21082    -3.11885  -8.70487e-05
4170  -0.0228552    0.218221    -1.71597  -0.000470256
4180  -0.0231333    0.218009     1.78163  -0.000588248
4190  -0.0110902    0.227213     -1.7211  -0.00012632
4200  -0.0206069     0.21994    -2.07182  0.000528265
4210  -0.0216555    0.219138    -1.02103  0.000182455
4220   -0.024256    0.217151    -2.77257  6.66322e-05
4230  -0.0229881     0.21812    -1.72247  0.000300254
4240  -0.0302611    0.212561    -1.01967  -0.000166352
4250  -0.0196611    0.220662    -3.12295  -0.000165383
4260  -0.0269535    0.215089    -6.27189  -0.000245612
4270  -0.0147488    0.224417    -3.47264  -0.000401222
4280   -0.018929    0.221222    -4.87415  2.69369e-05
4290  -0.0152876    0.224005    -5.92527  -0.000207783
4300  -0.0147734    0.224398    -1.37346  -0.000248106
4310  -0.0103255    0.227798     -1.3738  -9.10766e-05
4320  -0.0129518     0.22579   -0.322334  0.000342019
4330  -0.0171659     0.22257   -0.672711  0.000896479
4340  -0.0308814    0.212087     4.23016  0.000582029
4350  -0.0288064    0.213673   -0.321992  0.000149143
4360  -0.0338643    0.209807    0.729478  -0.000168872
4370   -0.025429    0.216254     2.83037  -0.000367317
4380   -0.026518    0.215422     1.43092  0.000348368
4390  -0.0323964    0.210929     2.48033  0.000149423
4400  -0.0295064    0.213138     3.18006  7.07012e-05
4410  -0.0338104    0.209848   0.0263325  0.000270786
4420  -0.0349221    0.208998     3.18074  -0.000290295
4430  -0.0280045    0.214286     3.17767  0.000272731
4440  -0.0403767    0.204829    0.728453  0.000554162
4450  -0.0390877    0.205815      1.7789  0.000193933
4460  -0.0442554    0.201865   -0.672368  0.000517707
4470  -0.0494419    0.197901    -1.37244  -0.000291027
4480  -0.0384349    0.206314    -1.37415  -0.000371825
4490  -0.0420054    0.203585   -0.673051  0.000113631
4500  -0.0407075    0.204577      1.4275  0.000114489
4510  -0.0442951    0.201834     1.07849  -0.000579588
4520  -0.0291157    0.213436    -1.37654  -0.000498188
4530  -0.0343314     0.20945    -2.07387  -0.000133102
4540  -0.0264537    0.215471     2.12517  -0.000337645
4550  -0.0275785    0.214611    0.727085  -5.18171e-05
4560  -0.0254173    0.216263   -0.324042  -9.29122e-05
4570  -0.0257202    0.216031     1.42442  -1.09286e-05
4580  -0.0251988     0.21643     2.47691  3.04658e-05
4590  -0.0263295    0.215566    0.374999  -0.000135303
4600  -0.0224927    0.218498     3.87876  -0.000342884
4610  -0.0194719    0.220807     5.27719  3.00368e-05
4620  -0.0230934    0.218039   -0.672025  0.000154516
4630  -0.0225622    0.218445    0.377395  0.000197221
4640  -0.0270379    0.215024     3.17767  0.000406581
4650  -0.0306938     0.21223     1.42647  0.000156799
4660  -0.0301738    0.212627   0.0256481  -0.000178023
4670  -0.0271334    0.214951     2.82729  -1.02384e-05
4680  -0.0299691    0.212784    -1.02309  -5.29605e-05
4690  -0.0260741    0.215761      1.7765  -0.000348021
4700  -0.0230087    0.218104     1.07404  0.000284973
4710  -0.0317736    0.211405     5.27548  0.000539183
4720  -0.0337923    0.209862     4.57815  0.000287146
4730  -0.0375165    0.207015     2.47828  0.000245533
4740   -0.038703    0.206109     3.17835  -5.15889e-05
4750  -0.0364848    0.207804     4.57883  -9.4158e-05
4760  -0.0368198    0.207548     4.57951  -0.000180325
4770  -0.0328783     0.21056     5.98068  -0.000437761
4780  -0.0280646     0.21424     2.82695  -0.000611121
4790  -0.0206559    0.219902     8.42989  -0.000613229
4800     -0.0158    0.223614     7.37945  -0.000184762
4810  -0.0169606    0.222726     2.47794  7.30962e-05
4820  -0.0172619    0.222496     7.37945  0.000116731
4830  -0.0192952    0.220942     8.43126  -0.000446645
4840  -0.00832902    0.229324     7.73187  -9.95711e-05
4850  -0.0173038    0.222464     3.88081  0.000376898
4860   -0.015867    0.223562     6.68074  -0.000231185
4870  -0.0126801    0.225998     4.93023  -0.000363011
4880  -0.00860676    0.229111     8.08156  0.000117263
4890  -0.0150254    0.224206     1.42647  7.28271e-05
4900  -0.0100633    0.227998     3.17972  7.42299e-05
4910    -0.01651    0.223071     4.23016  -0.000234885
4920  -0.00536561    0.231589      9.8314  -0.000454717
4930  -0.00741562    0.230022     5.62859  0.00024962
4940   -0.010358    0.227773     8.07951  0.000693555
4950  -0.0212867     0.21942     4.57712  0.00100626
4960  -0.0304831    0.212391      4.5778  0.000521149
4970  -0.0317097    0.211454     8.78061  -0.000278198
4980  -0.0249191    0.216644     14.0325  3.40998e-05
4990  -0.0323917    0.210932     9.12962  0.000346398
