Time   Number   
ps   
0           1           4
10           4           2
20           2           1
30           1           0
40           1           2
50           3           1
60           2           2
70           1           1
80           1           1
90           2           2
100           2           0
110           0           3
120           3           1
130           3           1
140           1           2
150           1           2
160           1           1
170           1           0
180           3           2
190           3           2
200           2           1
210           1           2
220           2           2
230           0           1
240           1           3
250           2           0
260           1           0
270           3           1
280           2           3
290           3           0
300           2           1
310           1           0
320           0           2
330           2           1
340           1           3
350           1           1
360           3           0
370           3           0
380           2           1
390           3           0
400           2           1
410           4           2
420           1           2
430           1           0
440           2           0
450           1           2
460           2           2
470           2           0
480           0           2
490           1           0
500           0           1
510           0           0
520           0           1
530           0           2
540           0           1
550           0           3
560           0           1
570           0           1
580           1           1
590           1           1
600           1           1
610           0           1
620           1           4
630           0           3
640           1           2
650           1           1
660           1           1
670           1           0
680           3           0
690           2           2
700           2           0
710           2           1
720           1           0
730           0           2
740           1           1
750           1           1
760           1           0
770           2           0
780           1           0
790           1           1
800           1           0
810           1           1
820           0           1
830           0           0
840           1           2
850           1           0
860           0           2
870           0           2
880           0           1
890           1           1
900           1           1
910           0           1
920           0           1
930           0           0
940           2           1
950           1           1
960           1           0
970           0           2
980           2           2
990           2           0
1000           2           0
1010           3           0
1020           2           1
1030           2           0
1040           2           1
1050           2           2
1060           3           0
1070           1           2
1080           2           3
1090           3           2
1100           3           1
1110           5           1
1120           5           0
1130           5           2
1140           3           1
1150           3           2
1160           4           1
1170           2           1
1180           1           1
1190           2           0
1200           2           0
1210           3           0
1220           3           1
1230           2           1
1240           1           1
1250           1           1
1260           2           1
1270           4           0
1280           1           2
1290           1           1
1300           5           0
1310           4           1
1320           2           1
1330           3           1
1340           4           0
1350           3           1
1360           3           0
1370           4           0
1380           2           3
1390           3           2
1400           2           3
1410           4           1
1420           4           1
1430           4           0
1440           4           3
1450           2           2
1460           4           1
1470           1           2
1480           2           3
1490           1           1
1500           1           4
1510           2           4
1520           0           4
1530           1           1
1540           2           0
1550           1           1
1560           1           1
1570           1           1
1580           5           0
1590           2           1
1600           2           1
1610           2           1
1620           4           1
1630           1           1
1640           2           2
1650           2           2
1660           3           1
1670           1           2
1680           1           1
1690           1           1
1700           1           1
1710           1           1
1720           0           2
1730           1           0
1740           2           0
1750           2           1
1760           1           0
1770           0           2
1780           1           2
1790           3           1
1800           0           1
1810           2           0
1820           1           3
1830           1           1
1840           1           1
1850           1           1
1860           1           2
1870           2           2
1880           2           2
1890           1           1
1900           3           0
1910           2           0
1920           4           3
1930           3           3
1940           3           1
1950           4           1
1960           2           1
1970           1           3
1980           2           1
1990           2           4
2000           4           0
2010           2           4
2020           2           1
2030           3           0
2040           3           1
2050           3           4
2060           2           1
2070           2           0
2080           4           0
2090           1           2
2100           4           2
2110           5           2
2120           4           2
2130           5           0
2140           4           1
2150           2           3
2160           4           0
2170           1           1
2180           2           1
2190           2           3
2200           2           1
2210           4           1
2220           2           4
2230           3           1
2240           4           3
2250           3           3
2260           4           0
2270           5           0
2280           4           1
2290           4           1
2300           5           1
2310           4           4
2320           6           1
2330           3           1
2340           4           1
2350           2           0
2360           3           0
2370           1           1
2380           2           1
2390           1           2
2400           2           3
2410           2           1
2420           2           1
2430           4           0
2440           3           1
2450           2           2
2460           3           0
2470           3           1
2480           2           0
2490           3           1
2500           3           2
2510           3           0
2520           3           0
2530           3           0
2540           3           1
2550           3           2
2560           4           3
2570           4           0
2580           4           0
2590           4           4
2600           4           0
2610           1           4
2620           3           0
2630           3           1
2640           3           0
2650           3           1
2660           3           2
2670           2           1
2680           5           0
2690           2           3
2700           3           0
2710           3           2
2720           2           1
2730           1           2
2740           3           0
2750           3           1
2760           3           0
2770           3           1
2780           3           0
2790           4           2
2800           4           0
2810           4           2
2820           1           3
2830           1           3
2840           3           3
2850           5           4
2860           3           2
2870           5           1
2880           3           1
2890           3           2
2900           4           2
2910           3           2
2920           3           5
2930           3           2
2940           2           5
2950           4           2
2960           4           1
2970           5           1
2980           6           0
2990           5           2
3000           5           0
3010           4           2
3020           3           1
3030           4           0
3040           5           0
3050           4           2
3060           3           2
3070           4           1
3080           4           1
3090           3           1
3100           3           1
3110           2           1
3120           2           2
3130           2           1
3140           5           1
3150           5           1
3160           4           2
3170           3           0
3180           4           2
3190           4           1
3200           4           0
3210           4           3
3220           4           1
3230           4           2
3240           4           3
3250           4           0
3260           4           2
3270           4           3
3280           4           1
3290           3           3
3300           4           3
3310           4           1
3320           1           2
3330           2           2
3340           2           3
3350           3           3
3360           2           0
3370           2           1
3380           1           2
3390           4           0
3400           1           0
3410           2           1
3420           1           1
3430           2           0
3440           3           1
3450           3           2
3460           2           4
3470           3           2
3480           1           0
3490           2           1
3500           1           5
3510           1           2
3520           2           1
3530           0           1
3540           0           1
3550           0           3
3560           2           3
3570           1           0
3580           1           3
3590           0           1
3600           3           0
3610           3           3
3620           4           0
3630           4           3
3640           4           1
3650           4           2
3660           4           1
3670           4           0
3680           4           1
3690           2           4
3700           3           2
3710           4           3
3720           3           2
3730           4           1
3740           3           2
3750           4           2
3760           2           2
3770           2           0
3780           3           1
3790           1           2
3800           3           2
3810           5           3
3820           5           0
3830           4           1
3840           4           1
3850           1           4
3860           2           3
3870           4           3
3880           3           1
3890           1           3
3900           1           0
3910           3           1
3920           2           3
3930           3           1
3940           2           2
3950           2           1
3960           2           0
3970           2           0
3980           0           4
3990           2           2
4000           1           1
4010           2           1
4020           1           1
4030           2           1
4040           3           1
4050           0           2
4060           3           1
4070           1           0
4080           2           1
4090           1           2
4100           2           0
4110           3           0
4120           0           1
4130           1           1
4140           1           1
4150           1           1
4160           1           1
4170           2           0
4180           1           3
4190           3           1
4200           1           0
4210           2           0
4220           1           1
4230           2           0
4240           1           0
4250           1           1
4260           1           0
4270           1           2
4280           1           1
4290           1           0
4300           3           1
4310           2           2
4320           0           1
4330           2           1
4340           3           1
4350           2           1
4360           2           3
4370           3           2
4380           2           3
4390           2           3
4400           2           1
4410           1           2
4420           2           0
4430           3           1
4440           2           1
4450           2           0
4460           0           1
4470           0           2
4480           1           3
4490           2           3
4500           3           3
4510           2           2
4520           3           1
4530           2           0
4540           3           0
4550           2           2
4560           3           1
4570           3           1
4580           4           0
4590           3           1
4600           2           2
4610           4           4
4620           5           1
4630           4           0
4640           4           3
4650           4           0
4660           4           1
4670           2           3
4680           3           3
4690           3           2
4700           3           1
4710           2           3
4720           4           0
4730           2           3
4740           5           1
4750           4           2
4760           3           2
4770           4           0
4780           5           2
4790           4           5
4800           4           2
4810           3           5
4820           4           2
4830           4           1
4840           5           4
4850           4           4
4860           5           2
4870           3           1
4880           4           2
4890           3           3
4900           4           2
4910           3           1
4920           3           2
4930           4           1
4940           4           2
4950           3           1
4960           2           2
4970           3           4
4980           3           4
4990           5           4
5000           6           2
5010           3           4
5020           6           0
5030           6           2
5040           6           2
5050           5           0
5060           4           3
5070           5           1
5080           4           0
5090           5           0
5100           3           5
5110           4           2
5120           5           2
5130           4           5
5140           5           3
5150           3           5
5160           4           5
5170           4           1
5180           5           2
5190           4           1
5200           7           2
5210           6           0
5220           4           1
5230           4           1
5240           4           3
5250           4           1
5260           4           2
5270           5           0
5280           4           1
5290           5           0
5300           4           3
5310           5           3
5320           4           0
5330           6           3
5340           4           3
5350           6           2
5360           5           2
5370           3           1
5380           3           1
5390           6           1
5400           5           1
5410           4           0
5420           2           3
5430           2           1
5440           4           0
5450           4           1
5460           4           2
5470           3           0
5480           4           1
5490           2           5
5500           5           0
5510           3           3
5520           3           4
5530           4           3
5540           1           3
5550           3           2
5560           4           1
5570           3           2
5580           1           3
5590           4           3
5600           5           3
5610           6           2
5620           4           2
5630           3           3
5640           5           0
5650           4           2
5660           4           2
5670           5           2
5680           4           1
5690           6           1
5700           5           1
5710           3           1
5720           3           3
5730           5           1
5740           2           3
5750           3           5
5760           4           2
5770           5           2
5780           5           0
5790           7           1
5800           3           6
5810           4           3
5820           5           2
5830           4           1
5840           4           2
5850           3           2
5860           7           1
5870           4           1
5880           4           2
5890           3           3
5900           5           3
5910           3           3
5920           4           1
5930           4           1
5940           4           2
5950           4           2
5960           4           1
5970           3           4
5980           4           0
5990           3           4
6000           2           2
6010           5           2
6020           4           1
6030           4           2
6040           3           3
6050           3           6
6060           3           2
6070           2           3
6080           3           1
6090           4           3
6100           7           1
6110           6           1
6120           4           3
6130           4           1
6140           3           1
6150           4           2
6160           4           3
6170           3           1
6180           1           4
6190           3           2
6200           4           2
6210           3           4
6220           4           1
6230           4           1
6240           5           3
6250           5           2
6260           2           2
6270           4           3
6280           3           3
6290           5           1
6300           5           0
6310           5           0
6320           6           0
6330           6           2
6340           4           3
6350           3           2
6360           4           2
6370           4           4
6380           5           5
6390           4           1
6400           3           2
6410           1           2
6420           4           2
6430           5           1
6440           3           0
6450           3           0
6460           5           3
6470           3           2
6480           3           2
6490           2           0
6500           2           3
6510           4           1
6520           3           1
6530           4           1
6540           4           0
6550           3           1
6560           2           1
6570           3           0
6580           4           0
6590           5           0
6600           5           0
6610           3           2
6620           3           2
6630           3           1
6640           3           2
6650           2           2
6660           2           2
6670           3           1
6680           4           1
6690           2           1
6700           4           1
6710           3           2
6720           4           3
6730           6           1
6740           5           2
6750           5           3
6760           2           3
6770           5           2
6780           3           2
6790           2           1
6800           4           4
6810           4           2
6820           3           2
6830           3           2
6840           5           1
6850           3           0
6860           1           3
6870           4           0
6880           2           1
6890           3           3
6900           4           1
6910           0           2
6920           3           1
6930           3           5
6940           0           4
6950           4           2
6960           3           1
6970           2           5
6980           3           1
6990           4           2
7000           4           2
7010           3           2
7020           2           0
7030           3           1
7040           4           1
7050           4           2
7060           3           2
7070           4           1
7080           4           2
7090           5           0
7100           5           3
7110           2           2
7120           2           3
7130           3           2
7140           3           1
7150           1           2
7160           2           2
7170           5           1
7180           2           2
7190           2           2
7200           4           3
7210           2           4
7220           1           4
7230           1           1
7240           3           2
7250           3           2
7260           6           0
7270           4           0
7280           1           4
7290           3           1
7300           3           3
7310           3           0
7320           4           1
7330           5           2
7340           4           1
7350           5           1
7360           4           2
7370           2           3
7380           5           1
7390           7           1
7400           4           3
7410           5           1
7420           5           3
7430           4           2
7440           3           3
7450           4           1
7460           3           1
7470           5           1
7480           4           3
7490           5           0
7500           3           3
7510           4           0
7520           5           2
7530           2           4
7540           3           1
7550           4           0
7560           4           0
7570           3           0
7580           3           0
7590           4           1
7600           4           2
7610           4           3
7620           2           6
7630           6           2
7640           5           2
7650           5           0
7660           4           2
7670           6           1
7680           4           2
7690           3           2
7700           3           3
7710           4           0
7720           4           0
7730           4           0
7740           4           1
7750           3           0
7760           4           0
7770           3           2
7780           3           1
7790           2           3
7800           3           1
7810           2           3
7820           3           1
7830           4           3
7840           3           3
7850           4           0
7860           5           1
7870           3           1
7880           2           1
7890           5           1
7900           4           1
7910           5           0
7920           5           5
7930           6           2
7940           6           3
7950           6           0
7960           5           3
7970           5           0
7980           4           1
7990           4           2
8000           5           1
8010           5           3
8020           4           1
8030           5           2
8040           5           2
8050           6           0
8060           6           3
8070           4           2
8080           6           1
8090           3           3
8100           4           3
8110           7           2
8120           4           6
8130           4           4
8140           5           4
8150           4           2
8160           3           4
8170           3           1
8180           4           1
8190           3           1
8200           4           2
8210           3           2
8220           3           2
8230           4           1
8240           3           1
8250           4           3
8260           3           1
8270           3           0
8280           3           1
8290           2           1
8300           2           1
8310           3           1
8320           2           3
8330           2           1
8340           3           0
8350           3           2
8360           4           0
8370           2           1
8380           4           1
8390           2           3
8400           3           0
8410           4           3
8420           4           3
8430           3           2
8440           3           4
8450           4           1
8460           4           1
8470           3           2
8480           3           4
8490           5           2
8500           3           2
8510           4           2
8520           4           1
8530           3           2
8540           2           3
8550           2           1
8560           3           1
8570           2           1
8580           4           2
8590           5           0
8600           2           3
8610           1           3
8620           3           1
8630           4           2
8640           3           1
8650           3           2
8660           3           1
8670           3           3
8680           2           1
8690           3           2
8700           4           3
8710           4           1
8720           3           5
8730           1           0
8740           4           2
8750           4           0
8760           3           1
8770           3           2
8780           4           2
8790           2           3
8800           2           2
8810           3           3
8820           4           3
8830           3           2
8840           3           2
8850           4           3
8860           2           4
8870           2           3
8880           3           3
8890           3           4
8900           1           3
8910           2           0
8920           3           3
8930           2           4
8940           1           2
8950           1           2
8960           1           2
8970           3           4
8980           2           1
8990           4           1
9000           3           0
9010           4           0
9020           2           2
9030           3           4
9040           4           1
9050           2           3
9060           3           4
9070           4           0
9080           1           1
9090           2           0
9100           1           2
9110           3           2
9120           1           0
9130           2           2
9140           4           0
9150           2           2
9160           1           1
9170           2           2
9180           4           0
9190           0           3
9200           1           2
9210           2           0
9220           3           0
9230           1           1
9240           1           1
9250           0           3
9260           2           2
9270           3           2
9280           2           1
9290           2           1
9300           2           0
9310           2           2
9320           1           3
9330           3           0
9340           3           1
9350           2           0
9360           0           4
9370           1           0
9380           1           3
9390           2           0
9400           0           2
9410           2           1
9420           2           1
9430           3           1
9440           1           2
9450           1           3
9460           3           1
9470           1           5
9480           2           2
9490           2           1
9500           2           2
9510           2           1
9520           2           0
9530           3           3
9540           4           1
9550           5           0
9560           4           0
9570           4           1
9580           3           1
9590           4           2
9600           5           1
9610           4           2
9620           4           2
9630           3           2
9640           3           2
9650           3           2
9660           5           0
9670           4           3
9680           3           5
9690           4           2
9700           4           0
9710           4           1
9720           2           2
9730           4           2
9740           2           1
9750           3           2
9760           4           2
9770           2           3
9780           2           3
9790           3           1
9800           2           3
9810           2           0
9820           2           3
9830           3           5
9840           3           1
9850           2           2
9860           3           1
9870           4           0
9880           4           2
9890           5           1
9900           3           0
9910           4           2
9920           5           0
9930           5           0
9940           5           1
9950           3           1
9960           3           1
9970           3           1
9980           2           2
9990           4           4
10000           3           2
