Time   C(t)   
ps   
0           1           1  9.33584e-10   0.0315759
10    0.691536    0.927478    0.766925   0.0167786
20    0.664427    0.921105   0.0444934   0.0019814
30    0.651908    0.918161    0.246592  0.00111163
40    0.642194    0.915878   -0.231104  0.00111711
50    0.629565    0.912909    0.130994  0.00107372
60     0.62072    0.910829  -0.0866068  0.000831059
70    0.612944    0.909001  -0.0287229  0.000881395
80    0.603092    0.906685    0.781933  0.00074665
90    0.598011     0.90549    0.578916  0.000699773
100    0.589097    0.903394     1.04213  0.000779897
110    0.582413    0.901823     1.43232  0.000565785
120    0.577781    0.900734    0.896768  0.000603563
130    0.570342    0.898985     1.30212  0.000577146
140    0.566238     0.89802    0.911338  0.000709748
150    0.556147    0.895648     1.14293  0.00064984
160    0.553241    0.894964    0.433401  0.000397813
170    0.548191    0.893777    0.794921  0.000646243
180    0.540316    0.891926    0.173079  0.00062297
190    0.535731    0.890848     1.21424  0.000560132
200    0.529114    0.889292    0.389917  0.000459737
210    0.526537    0.888686     1.08393  0.000252104
220    0.524072    0.888106     1.05427  0.000520229
230    0.516132     0.88624     1.04079  0.000594661
240    0.512178     0.88531    0.707982  0.000423634
250    0.507659    0.884248    0.910251  0.000424537
260    0.503688    0.883314     1.04057  0.000623019
270    0.495199    0.881318     1.38805  0.000472654
280    0.494235    0.881092     1.17019  0.000279027
290    0.489619    0.880006     1.17037  0.000542653
300    0.483382     0.87854   -0.189344  0.000518934
310     0.47924    0.877566    0.982111  0.000284325
320    0.477695    0.877203    0.837091  0.000325461
330    0.472731    0.876036     0.80812  0.000556038
340    0.466574    0.874588    0.533328  0.00049798
350    0.462771    0.873694    0.620648  0.000212364
360    0.462327     0.87359      1.1265  0.000153698
370    0.459697    0.872972     1.21318  0.000175881
380    0.458809    0.872763     1.58927  0.000407524
390    0.451547    0.871055    0.765103  0.000439379
400    0.450022    0.870697     1.18461  0.000168213
410    0.448182    0.870264     1.16957  0.000231074
420      0.4454     0.86961    0.619828  0.000309931
430    0.441984    0.868807     1.08284  0.00016617
440    0.442077    0.868829    0.937554  0.000151049
450    0.438963    0.868097     1.61738  0.000207737
460    0.437922    0.867852      1.9643  0.000302795
470    0.432907    0.866673      1.6319  0.000382197
480    0.430278    0.866055     1.67516  0.000405142
490    0.424804    0.864768      1.4439  0.00031101
500    0.424058    0.864593     1.32786  0.000239249
510    0.420019    0.863643     1.41442  0.000264791
520    0.418762    0.863348     1.66015  0.000290905
530    0.414201    0.862275     1.55884  0.000205709
540    0.414648     0.86238     1.64505   0.0001682
550    0.410837    0.861484     1.58759  0.000336994
560    0.407908    0.860796     1.60172  0.00029946
570    0.404848    0.860076      2.0939  0.000201195
580    0.403884     0.85985     1.63055  0.000217789
590    0.400492    0.859052     1.67412  0.000387459
600    0.396135    0.858028     1.52946  0.000218764
610    0.396117    0.858023     1.29787  0.000171381
620    0.392708    0.857222     1.77506  0.00016825
630    0.392752    0.857232     2.00627  0.000323001
640    0.386248    0.855703     1.42789  0.000377876
650    0.385194    0.855455     1.64474  0.000153825
660    0.383171     0.85498     1.77503  0.000292577
670    0.379343     0.85408     1.87589  0.000218941
680    0.378792     0.85395     1.52849  0.000148666
690    0.376369    0.853381     2.09245  0.000281233
700    0.373168    0.852628     1.74544  0.000281879
710    0.370732    0.852055     1.15223  0.000204961
720    0.369068    0.851664     1.78826  0.00010165
730    0.368699    0.851577     1.88939  0.000157018
740    0.365928    0.850926     1.03636  0.000339098
750    0.361917    0.849983     1.07982  0.000225991
760    0.361408    0.849863      1.3978  0.000301526
770    0.355886    0.848565     1.88985  0.000389802
780    0.353612     0.84803     2.23699  0.00017886
790    0.352309    0.847724     1.93315  5.85258e-05
800    0.352442    0.847755     1.70112  0.000137258
810    0.349564    0.847079      1.8894  0.000268215
820    0.347077    0.846494     1.39739  0.000265425
830    0.344255    0.845831     1.57093  0.000154686
840    0.343984    0.845767    0.948762  0.000112475
850    0.342006    0.845302    0.818848  0.000142062
860    0.341142    0.845099      1.6288  7.34195e-05
870    0.340537    0.844956     1.13694  0.00018554
880    0.337432    0.844226     1.29602  0.000166006
890    0.337217    0.844176     1.51309  0.000113818
900    0.335155    0.843691     1.45468  0.000156868
910     0.33408    0.843438     1.38262  0.000216763
920     0.33082    0.842672     1.42601  0.000147614
930    0.331128    0.842744    0.673715  -3.40745e-05
940    0.331501    0.842832     1.09272  0.000134949
950    0.328429     0.84211     2.04759  0.000251305
960    0.326475     0.84165     1.46908  0.000218828
970    0.324052    0.841081     1.03525  0.000159287
980     0.32329    0.840901    0.933825  -2.37301e-05
990    0.324527    0.841192     1.13581  0.000146727
1000    0.320355    0.840211     1.45431  0.000353943
1010    0.317448    0.839528    0.876054  0.000217408
1020    0.316007    0.839189    0.962696  2.71648e-05
1030    0.316905      0.8394     1.33836  5.42283e-05
1040    0.314922    0.838934    0.961905  0.00017166
1050    0.313471    0.838593     1.26574  7.59959e-07
1060    0.314907    0.838931     1.35231  0.000111943
1070    0.311233    0.838067     1.61283  0.000243141
1080    0.310044    0.837787     1.32361  0.000173055
1090    0.307771    0.837253     1.30921  5.86152e-05
1100    0.308872    0.837512    0.600047  0.000106201
1110    0.305647    0.836754    0.875447  0.000234863
1120    0.304175    0.836407     1.41032  0.000143975
1130    0.302768    0.836077     1.33768  0.000174816
1140    0.300678    0.835585     1.04842  0.000216039
1150    0.298447    0.835061    0.513263  0.000301388
1160    0.294651    0.834168    0.976249  0.000274679
1170    0.292954    0.833769    0.817139  2.69234e-05
1180    0.294112    0.834042    0.744728  -1.51992e-07
1190    0.292957     0.83377    0.759001  6.78673e-05
1200    0.292755    0.833722     1.55421  0.000191143
1210    0.289134    0.832871    0.946813  0.000160658
1220    0.289542    0.832967      1.4531  0.000192057
1230    0.285293    0.831968     1.48204  0.000195618
1240    0.285629    0.832047     1.45301  9.34094e-05
1250    0.283424    0.831529     1.27932  0.000313416
1260    0.279361    0.830573     1.12062  0.00027615
1270    0.277901     0.83023    0.946728  2.8953e-05
1280    0.278782    0.830437     1.07664  7.73624e-05
1290    0.276354    0.829867     1.16331  0.000212058
1300    0.274541     0.82944    0.454461  6.4002e-05
1310    0.275074    0.829566    0.946092  0.000123124
1320    0.272078    0.828861    0.787081  0.000213175
1330    0.270811    0.828563    0.136298  8.88839e-05
1340    0.270301    0.828443  -0.00856653  0.000217725
1350    0.266456    0.827539    0.425322  0.000179785
1360    0.266705    0.827598    0.150134  0.000176881
1370    0.262919    0.826708    0.584545  0.000285049
1380    0.261004    0.826258    -0.15305  0.000275517
1390    0.257408    0.825412   -0.384416  0.000265501
1400    0.255694    0.825009   -0.167747  9.82896e-05
1410    0.255442     0.82495   -0.326984  0.000242227
1420    0.250849     0.82387    0.179739  0.000189953
1430    0.251643    0.824057    -0.10999  2.58341e-05
1440    0.250333    0.823749    0.135874  8.54373e-05
1450    0.249935    0.823655    -0.26951  0.000162939
1460    0.247074    0.822983    0.482979  0.000152747
1470     0.24688    0.822937    0.569537  0.000121678
1480     0.24464     0.82241   0.0634491  0.000181802
1490    0.243244    0.822082   -0.153756  0.000125594
1500    0.242128     0.82182   -0.356237  0.000150617
1510    0.240231    0.821374   -0.197183  6.60554e-05
1520    0.240807    0.821509   -0.255378  6.6448e-05
1530    0.238902    0.821061   -0.110937  0.000261547
1540    0.235576    0.820279   -0.182769  0.00019449
1550    0.235013    0.820147   -0.602398  2.44014e-05
1560    0.235088    0.820165  -0.0237016   0.0001385
1570    0.232243    0.819496   0.0919531  0.000284959
1580    0.229389    0.818825   0.0918963  0.00036781
1590    0.224886    0.817766   -0.428464  0.000204086
1600    0.225307    0.817865   -0.168439  3.65838e-05
1610    0.224155    0.817594   -0.400144  0.000194236
1620    0.221423    0.816952   -0.530185  7.97831e-05
1630    0.222559    0.817219   -0.299003  5.13762e-05
1640    0.220395     0.81671   -0.617081  0.000234775
1650    0.217864    0.816115    -0.19779  0.000188748
1660     0.21662    0.815823   -0.342189  0.000124277
1670    0.215378    0.815531   -0.342542  0.000211159
1680    0.212397     0.81483   -0.790591  0.000208015
1690    0.211218    0.814553   -0.313615  0.00023016
1700    0.207794    0.813748   -0.544867  0.000190751
1710    0.207403    0.813656   -0.328326  0.000100788
1720    0.205778    0.813274   -0.385871  0.000184526
1730    0.203712    0.812788   -0.183376  0.000152177
1740    0.202735    0.812558   -0.733301  5.05775e-05
1750    0.202701     0.81255   -0.154717  6.17832e-05
1760    0.201499    0.812268   -0.169385  0.000222441
1770    0.198252    0.811504   -0.154703  0.000252078
1780    0.196457    0.811082  -0.0536464  0.000161468
1790    0.195022    0.810745  -0.0971721  0.000183791
1800    0.192782    0.810218     0.22116  8.51072e-05
1810     0.19332    0.810345  -0.0106994  0.00010757
1820     0.19063    0.809712   -0.256112  0.000291386
1830    0.187493    0.808975   -0.559833  0.000185362
1840    0.186923    0.808841  -0.0684279  0.000255944
1850    0.182374    0.807771   -0.169244  0.000178898
1860    0.183345    0.807999    0.235293  3.56324e-05
1870    0.181661    0.807604    0.596826  0.000179646
1880    0.179752    0.807155    0.452272  0.000113502
1890    0.179391     0.80707    0.264009  0.000188101
1900     0.17599     0.80627   0.0758721  0.000143785
1910    0.176515    0.806394    0.234784  0.000148121
1920    0.173028    0.805574    0.654626  0.000133302
1930    0.173849    0.805767    0.552961  -4.49114e-05
1940    0.173926    0.805785   0.0464216  0.000156398
1950    0.170721    0.805032    0.538434  0.000238717
1960    0.169151    0.804663    0.176618  0.000205822
1970    0.166605    0.804064   0.0317953  8.63247e-05
1980    0.167425    0.804257  0.00282532  7.18102e-05
1990    0.165169    0.803726   -0.112731  3.80918e-05
2000    0.166663    0.804078    0.291948  0.000166158
2010    0.161845    0.802945    0.321059  0.000278988
2020    0.161083    0.802766    -0.25768  0.000159415
2030    0.158657    0.802195   -0.026187  0.000159897
2040    0.157885    0.802014   -0.127498  0.000201817
2050    0.154621    0.801246    0.653509  0.000266515
2060    0.152555    0.800761    0.118367  0.000206658
2070    0.150488    0.800275    0.595584  9.71243e-05
2080    0.150613    0.800304       0.118  1.77979e-05
2090    0.150132    0.800191    0.595047  0.000112855
2100    0.148355    0.799773    0.204613  0.000261647
2110    0.144899    0.798961  -0.0988106  0.000193501
2120    0.144485    0.798863   0.0889163  5.67131e-05
2130    0.143764    0.798694    0.146617  0.000156195
2140    0.141362    0.798129    0.479604  0.000125848
2150    0.141247    0.798102   -0.171533  -2.30074e-05
2160    0.141822    0.798237    0.276615  1.91919e-05
2170    0.140864    0.798012    0.175248  8.44993e-05
2180    0.140132     0.79784    0.189563  6.92621e-05
2190    0.139478    0.797686  -0.0418164  9.6377e-05
2200    0.138204    0.797387  0.00162474  5.4165e-05
2210    0.138395    0.797432   -0.418245  0.000166348
2220    0.134877    0.796604   0.0591833  0.000209182
2230    0.134211    0.796448    0.377488  0.000151759
2240    0.131842    0.795891   -0.331038  6.28352e-05
2250    0.132955    0.796152    0.174739  -2.20567e-05
2260    0.132283    0.795995   0.0591551  1.65932e-05
2270    0.132623    0.796074    0.131199  4.9822e-06
2280    0.132184    0.795971    0.275965  -8.85047e-05
2290    0.134393    0.796491    0.246571  9.87209e-05
2300    0.130209    0.795507    0.883632  0.000207901
2310    0.130235    0.795513    0.507119  0.000114808
2320    0.127913    0.794967    0.290041  0.000173701
2330    0.126761    0.794696   -0.346229  0.000127242
2340    0.125368    0.794369   0.0588165  0.000159034
2350     0.12358    0.793948    0.160155  0.00022618
2360    0.120845    0.793305    0.377304  8.88471e-05
2370    0.121803    0.793531    0.261212  -3.2844e-05
2380    0.121501     0.79346    0.507006  9.34232e-05
2390    0.119935    0.793091    0.796227  0.000125088
2400       0.119    0.792872   0.0877299  0.000208497
2410    0.115765    0.792111    0.304865  9.79863e-05
2420     0.11704    0.792411    0.231987  2.71901e-05
2430    0.115221    0.791983   -0.274157  0.000261432
2440    0.111811    0.791182   -0.389783  0.000190497
2450    0.111411    0.791087   0.0152202  5.16679e-05
2460    0.110778    0.790939   -0.144074  9.56286e-05
2470    0.109499    0.790638    0.347713  0.000163864
2480    0.107501    0.790168    0.203017  8.02275e-05
2490    0.107894    0.790261  -0.0575302  8.05568e-05
2500    0.105889    0.789789   -0.462548  8.45749e-05
2510    0.106203    0.789863  -0.0866135  0.000193564
2520    0.102018    0.788879    0.203159  0.000350444
2530   0.0991937    0.788215   -0.520333  0.000190446
2540   0.0982093    0.787984   -0.231069  0.000138766
2550   0.0964184    0.787563   -0.173453  0.000118864
2560    0.095832    0.787425   -0.419431  5.04509e-05
2570   0.0954094    0.787325  -0.0144001  4.65214e-05
2580   0.0949016    0.787206   -0.448458  9.93431e-05
2590   0.0934225    0.786858   -0.448275  5.89822e-05
2600   0.0937219    0.786929   0.0433709  2.68351e-05
2610   0.0928858    0.786732    0.260223  5.93621e-05
2620   0.0925347    0.786649   0.0286599  4.31877e-05
2630   0.0920221    0.786529    0.172847  0.000173878
2640   0.0890571    0.785832     0.39025  0.000141567
2650   0.0891907    0.785863    0.520234  4.39227e-05
2660   0.0881787    0.785625    0.621545  0.000138195
2670   0.0864268    0.785213    0.607017  0.000126229
2680   0.0856541    0.785032    0.274256  0.000151239
2690    0.083402    0.784502    0.491278  0.000122832
2700   0.0831974    0.784454     0.34654  7.80087e-05
2710   0.0818419    0.784136    0.389925  0.00013173
2720   0.0805628    0.783835    0.520093  0.000140388
2730   0.0790341    0.783475    0.274157  4.14509e-05
2740   0.0797338     0.78364    0.765872  -8.67683e-05
2750   0.0807695    0.783883    0.895716  -2.47821e-05
2760   0.0802295    0.783756    0.881118  1.66565e-05
2770   0.0804363    0.783805    0.664379  4.59257e-05
2780   0.0793109     0.78354      1.0257  0.000108318
2790     0.07827    0.783296    0.808763  4.43682e-06
2800   0.0792222     0.78352    0.736182  0.000129943
2810   0.0756711    0.782685    0.664265  0.000104742
2820   0.0771274    0.783027    0.128586  0.000101358
2830    0.073644    0.782208    0.505029  0.000168352
2840   0.0737603    0.782236    0.649653  -2.84325e-05
2850   0.0742126    0.782342    0.302181  9.78343e-05
2860   0.0718036    0.781775   0.0708294  0.000106251
2870   0.0720876    0.781842    0.229854  -7.465e-05
2880   0.0732966    0.782126    0.475395  -1.97999e-05
2890   0.0724836    0.781935    0.301983  3.49481e-05
2900   0.0725977    0.781962    0.258485  -1.56932e-05
2910   0.0727974    0.782009    0.142506  0.00010293
2920   0.0705391    0.781478   0.0559489  0.000247514
2930   0.0678472    0.780845   -0.059522  9.93811e-05
2940   0.0685515    0.781011    0.287343  1.88623e-05
2950   0.0674699    0.780757    0.272674  0.000104159
2960   0.0664683    0.780521    0.171449  0.000113058
2970   0.0652088    0.780225    0.113409  0.000109053
2980   0.0642872    0.780008    0.489527  9.22062e-05
2990   0.0633646    0.779791   0.0992064  0.000285707
3000   0.0585731    0.778665   -0.088718  0.000243204
3010   0.0585006    0.778648    0.200474  0.000114972
3020   0.0562736    0.778124    0.099404  0.000111043
3030   0.0562797    0.778126   -0.233513  -5.25931e-05
3040   0.0573255    0.778372    0.489315  -7.60518e-07
3050   0.0562949    0.778129    -0.17594  0.00012041
3060   0.0549173    0.777805   -0.204768  0.000137891
3070   0.0535371    0.777481  -0.0169007  3.40989e-05
3080   0.0542353    0.777645   -0.176307  6.4851e-05
3090   0.0522401    0.777176   -0.436812  8.22173e-05
3100   0.0525909    0.777258   -0.176491  0.000100103
3110    0.050238    0.776705    0.257511  0.000196226
3120   0.0486664    0.776336    0.358737  0.000209879
3130   0.0460404    0.775718    0.387863  3.9841e-05
3140   0.0478696    0.776148    0.445224  5.78158e-05
3150   0.0448841    0.775447    0.098387  0.000211171
3160   0.0436462    0.775155   0.0693465  0.000123985
3170   0.0424044    0.774864    0.271827  -3.34643e-06
3180   0.0437131    0.775171    0.416352  2.33114e-05
3190   0.0419382    0.774754   0.0836615  0.00019544
3200   0.0398043    0.774252    0.228273  0.000103133
3210   0.0398755    0.774269    0.474095  0.000107975
3220   0.0376448    0.773745    0.127018  0.000130272
3230   0.0372701    0.773656   -0.393682  -6.88322e-06
3240   0.0377824    0.773777    0.531894  0.000180077
3250   0.0336685     0.77281    0.170572  0.000211387
3260   0.0335547    0.772783    0.213745  0.000131908
3270   0.0310304    0.772189    0.329795  9.20413e-05
3280   0.0317139     0.77235    0.561062  6.13018e-05
3290   0.0298044    0.771901    0.532261  -1.06605e-05
3300   0.0319271      0.7724    0.285718  -0.000163078
3310   0.0330659    0.772668     0.76285  0.000137815
3320   0.0291708    0.771752     1.00935  0.000173828
3330   0.0295894    0.771851    0.459468  4.38214e-05
3340   0.0282944    0.771546     1.13948  6.19482e-05
3350   0.0283504    0.771559    0.676589  8.47525e-05
3360   0.0265993    0.771148    0.763246  9.86202e-05
3370    0.026378    0.771096    0.748464  0.000162584
3380   0.0233476    0.770383     1.06695  0.000103602
3390    0.024306    0.770608     1.09543  4.0665e-05
3400   0.0225343    0.770192    0.979985  0.000190978
3410   0.0204864     0.76971     0.80639  4.98552e-05
3420   0.0215372    0.769958    0.907433  -1.37028e-05
3430   0.0207604    0.769775     1.38466  7.7768e-05
3440   0.0199819    0.769592     1.29787  0.000160594
3450   0.0175486     0.76902     1.09558  0.000220653
3460   0.0155688    0.768554     1.26912  7.86934e-05
3470   0.0159747     0.76865     1.35588  7.91624e-05
3480   0.0139856    0.768182     1.29802  6.99468e-05
3490   0.0145758    0.768321     1.21083  3.33889e-05
3500   0.0133178    0.768025     1.22554  7.96567e-05
3510   0.0129826    0.767946      1.3122  3.35664e-05
3520   0.0126465    0.767867     1.65936  -6.8337e-05
3530   0.0143494    0.768268     1.41324  0.000112906
3540   0.0103883    0.767336     1.34093  0.000159288
3550   0.0111636    0.767519     1.54333  -2.99159e-06
3560   0.0104482     0.76735     1.26858  6.21891e-05
3570  0.00991983    0.767226     1.02251  0.000202805
3580  0.00639206    0.766397    0.921395  8.61469e-05
3590  0.00819689    0.766821     1.31162  -2.12452e-05
3600  0.00681697    0.766497     0.79086  7.72356e-05
3610  0.00665218    0.766458    0.993368  4.92848e-05
3620  0.00583127    0.766265     1.00774  0.000162508
3630  0.00340202    0.765694     1.32593  0.000177161
3640  0.00228804    0.765432     1.06558  5.00326e-05
3650  0.00240136    0.765459    0.848531  3.14114e-05
3660  0.00165981    0.765284      1.2965   0.0002213
3670  -0.00202463    0.764418    0.892156  0.000126584
3680  -0.000871864    0.764689    0.515813  0.000170253
3690  -0.00542969    0.763617    0.906642  7.50553e-05
3700  -0.00237297    0.764336    0.993086  -0.000177364
3710  -0.0018824    0.764451    0.631311  0.00012325
3720  -0.00483797    0.763757     1.15215  0.000123453
3730  -0.00435146    0.763871     1.05083  -1.51607e-05
3740  -0.00453476    0.763828     1.15187  3.76988e-05
3750  -0.00510543    0.763694     1.38321  4.74341e-05
3760  -0.00548344    0.763605     1.25318  3.30467e-05
3770  -0.00576637    0.763538     1.45549  5.25806e-05
3780  -0.00653505    0.763358     1.38319  0.000183309
3790  -0.00943256    0.762676     1.45561  5.76763e-05
3800  -0.00768857    0.763086     1.51319  4.91831e-06
3810  -0.00953092    0.762653     1.42656  0.000184514
3820  -0.0113788    0.762219     1.68663  6.81342e-05
3830  -0.0108936    0.762333     1.58558  2.95227e-05
3840  -0.0119693     0.76208     1.12262  0.000156664
3850  -0.0140269    0.761596     1.71591  7.38891e-05
3860  -0.0134471    0.761733     1.80222  5.46467e-05
3870  -0.0151198    0.761339     2.03391  6.94525e-05
3880  -0.0148361    0.761406      1.3395  6.00468e-05
3890  -0.0163208    0.761057     1.32517  0.000232379
3900  -0.0194837    0.760313     1.19503  9.9799e-05
3910  -0.0183167    0.760588     1.61418  1.15479e-05
3920  -0.0197147    0.760259     1.38288  5.59651e-05
3930   -0.019436    0.760324     1.49835  7.61328e-05
3940  -0.0212373    0.759901     1.75879  0.000110929
3950  -0.0216546    0.759803     1.58504  0.000200942
3960  -0.0252562    0.758956     1.71549  9.17625e-05
3970  -0.0234899    0.759371     2.20701  5.25806e-05
3980  -0.0263078    0.758709     1.74442  8.73765e-05
3990  -0.0252374    0.758961     2.29393  -0.000152329
4000  -0.0232612    0.759425     2.13429  3.77115e-05
4010  -0.0259916    0.758783     2.00439  0.000253548
4020  -0.0283321    0.758233     1.83109  0.000259518
4030   -0.031182    0.757563     2.09132  0.000174474
4040  -0.0318216    0.757413     1.57062  2.8927e-05
4050  -0.0317605    0.757427     2.19264  4.94115e-05
4060  -0.0328099     0.75718     2.07677  0.000115289
4070  -0.0340663    0.756885     1.68638  4.00562e-06
4080    -0.03289    0.757161     2.07659  3.97524e-05
4090  -0.0348614    0.756698     1.77294  0.000248401
4100   -0.037858    0.755993     2.13467  0.000193032
4110   -0.038722     0.75579     2.32262  0.000137713
4120  -0.0406123    0.755346     2.01886  1.01788e-05
4130  -0.0389256    0.755742     2.03316  -1.50971e-05
4140  -0.0403103    0.755417     2.03327  0.000154028
4150  -0.0420061    0.755018     1.74416  1.55661e-05
4160  -0.0406216    0.755344     1.16513  1.07113e-05
4170  -0.0422204    0.754968     1.85946  0.000155118
4180   -0.043724    0.754614     1.17977  7.30271e-05
4190  -0.0436809    0.754624     1.23757  -1.47423e-05
4200  -0.0434292    0.754684     1.51223  7.84652e-05
4210  -0.0452502    0.754255     1.77264  8.8999e-05
4220  -0.0452091    0.754265     1.65684  1.14087e-06
4230   -0.045273     0.75425     1.13599  3.24382e-05
4240  -0.0458579    0.754113    0.846752  2.1955e-05
4250  -0.0457121    0.754147     1.38177  6.38887e-06
4260  -0.0459857    0.754083    0.991122  -9.30429e-06
4270   -0.045526    0.754191     1.10675  0.000258466
4280   -0.051155    0.752867      1.1071  0.000185223
4290  -0.0492305     0.75332      1.0924  -0.000219246
4300  -0.0467701    0.753898     1.10658  -8.80994e-06
4310  -0.0490543    0.753361     1.38137  0.000218156
4320  -0.0511332    0.752872      1.3383  0.000118294
4330  -0.0514202    0.752805     1.06342  -8.80864e-05
4340  -0.0493715    0.753286    0.846398  3.4048e-05
4350  -0.0521011    0.752645     1.16459  0.000182891
4360  -0.0530293    0.752427     1.09239  -2.44269e-05
4370  -0.0516126     0.75276     1.43935  4.52412e-05
4380  -0.0539341    0.752214      1.2513  4.51017e-05
4390  -0.0525146    0.752548     1.20782  -3.48721e-05
4400  -0.0532367    0.752378     1.06288  -8.36117e-05
4410  -0.0508424    0.752941      1.0195  6.70567e-05
4420  -0.0545778    0.752062     1.01961  0.000250125
4430  -0.0558449    0.751765     1.10651  -2.56058e-06
4440  -0.0545266    0.752074    0.975988  3.01817e-05
4450  -0.0564485    0.751623     1.13539  0.000225115
4460  -0.0590289    0.751016    0.831688  4.65721e-05
4470    -0.05738    0.751404     1.06291  -8.35357e-05
4480  -0.0573582    0.751409    0.946947  3.23243e-06
4490  -0.0574446    0.751388    0.961163  0.000145319
4500  -0.0602646    0.750725     0.87462  -3.48974e-05
4510  -0.0567467    0.751553    0.816341  -9.48554e-05
4520  -0.0583675    0.751171    0.541746  0.000195364
4530   -0.060654    0.750634    0.917863  0.000129981
4540  -0.0609671     0.75056    0.903435  -1.81016e-05
4550  -0.0602919    0.750719    0.845467  -6.22144e-05
4560  -0.0597228    0.750853     1.04765  -9.01779e-05
4570  -0.0584884    0.751143     1.17789  3.7103e-05
4580  -0.0604648    0.750678     1.16346  0.000153483
4590   -0.061558    0.750421     1.12005  -1.27649e-05
4600  -0.0602095    0.750738     1.01852  3.7648e-05
4610   -0.062311    0.750244    0.845254  0.00020491
4620  -0.0643077    0.749775    0.961022   7.143e-05
4630  -0.0637396    0.749908     1.01857  -4.57101e-05
4640  -0.0633935     0.74999    0.555554  0.000161785
4650  -0.0669753    0.749148    0.700517  0.000150656
4660  -0.0664067    0.749281     0.68589  -0.000118775
4670  -0.0645998    0.749706    0.859217  -4.57101e-05
4680  -0.0654925    0.749496    0.743591  0.000174487
4690  -0.0680895    0.748886    0.628021  0.000107075
4700   -0.067634    0.748993    0.555525  3.3807e-05
4710  -0.0687657    0.748727     1.10525  8.50949e-05
4720  -0.0693359    0.748593    0.902658  0.000159605
4730  -0.0719578    0.747976    0.526724  0.000119865
4740  -0.0717332    0.748029    0.598994  1.77085e-05
4750   -0.072312    0.747893    0.281015  -0.000108381
4760  -0.0695655    0.748539    0.266049  2.35267e-05
4770  -0.0727825    0.747782    0.222848  9.21935e-05
4780  -0.0714094    0.748105    0.454186  -7.42313e-05
4790  -0.0712979    0.748131    0.164865  6.14785e-06
4800  -0.0715324    0.748076    0.757864  4.67241e-05
4810  -0.0722323    0.747912    0.251536  -6.33426e-05
4820  -0.0702655    0.748374    0.555073  -2.85085e-05
4830  -0.0716622    0.748046    0.555242  6.4268e-05
4840  -0.0715509    0.748072   0.0199443  5.87918e-05
4850   -0.072838    0.747769    0.482845  0.00018156
4860  -0.0751821    0.747218    0.786876  0.000147056
4870  -0.0757791    0.747078    0.381874  -6.92371e-05
4880  -0.0737973    0.747544   0.0345991  -0.000222086
4890  -0.0713374    0.748122    0.193243  -0.00011103
4900  -0.0715767    0.748066   -0.240476  0.000112551
4910  -0.0735884    0.747593    0.395864  8.32316e-05
4920  -0.0732414    0.747675    0.555031  -2.2817e-05
4930  -0.0731321      0.7477  -0.0382646  2.45787e-05
4940  -0.0737329    0.747559    0.439108  0.000113819
4950  -0.0754085    0.747165    0.178786   0.0001619
4960  -0.0769709    0.746798    0.149787  0.000216166
4970  -0.0797318    0.746149  -0.0670647  0.000168985
4980  -0.0803506    0.746003   0.0341188  -8.18115e-05
4990  -0.0780956    0.746533   -0.110676  -0.000332608
