Time   Number   
ps   
0          67          40
10          68          43
20          70          34
30          69          43
40          73          34
50          68          42
60          68          40
70          68          41
80          58          52
90          67          40
100          69          40
110          67          39
120          70          40
130          67          37
140          70          39
150          66          42
160          67          39
170          67          38
180          66          39
190          69          36
200          72          41
210          68          43
220          69          39
230          68          35
240          71          39
250          70          34
260          73          35
270          63          45
280          70          39
290          66          44
300          70          43
310          67          49
320          68          43
330          71          38
340          65          46
350          65          44
360          66          42
370          65          36
380          68          36
390          70          42
400          72          45
410          69          41
420          67          41
430          70          41
440          67          49
450          66          50
460          70          40
470          69          35
480          69          38
490          70          43
500          68          46
510          71          38
520          69          44
530          71          43
540          69          42
550          72          41
560          68          41
570          73          40
580          71          45
590          71          39
600          71          43
610          74          42
620          71          45
630          71          49
640          68          48
650          74          44
660          71          35
670          74          41
680          73          41
690          72          40
700          71          37
710          74          35
720          73          41
730          69          37
740          70          36
750          68          38
760          67          46
770          72          40
780          71          39
790          73          37
800          65          44
810          71          40
820          72          39
830          69          35
840          68          47
850          69          39
860          69          43
870          70          40
880          70          44
890          71          41
900          73          42
910          72          47
920          68          46
930          71          42
940          72          42
950          70          41
960          68          39
970          71          36
980          68          37
990          70          46
1000          71          35
1010          71          36
1020          69          34
1030          67          50
1040          73          46
1050          70          48
1060          73          44
1070          73          45
1080          70          40
1090          69          46
1100          74          38
1110          69          40
1120          71          37
1130          69          38
1140          73          41
1150          71          41
1160          70          44
1170          70          41
1180          69          45
1190          68          38
1200          70          44
1210          66          51
1220          73          41
1230          70          36
1240          71          36
1250          75          43
1260          71          40
1270          70          36
1280          71          41
1290          73          34
1300          69          38
1310          73          40
1320          74          35
1330          74          36
1340          74          36
1350          73          36
1360          75          37
1370          69          46
1380          73          37
1390          73          40
1400          71          35
1410          72          41
1420          72          39
1430          72          39
1440          69          37
1450          74          39
1460          73          40
1470          74          35
1480          73          39
1490          73          47
1500          73          41
1510          70          44
1520          75          42
1530          71          40
1540          74          42
1550          74          41
1560          71          42
1570          72          44
1580          71          46
1590          70          44
1600          70          47
1610          71          39
1620          69          36
1630          71          40
1640          73          36
1650          66          46
1660          73          36
1670          70          42
1680          72          45
1690          74          40
1700          74          42
1710          72          42
1720          70          40
1730          72          39
1740          66          51
1750          69          40
1760          71          48
1770          72          38
1780          72          38
1790          71          46
1800          68          49
1810          73          46
1820          68          41
1830          64          41
1840          69          48
1850          67          40
1860          71          44
1870          72          37
1880          71          38
1890          70          42
1900          67          44
1910          69          43
1920          66          47
1930          70          37
1940          70          37
1950          66          36
1960          67          45
1970          71          42
1980          69          41
1990          68          42
2000          72          41
2010          71          39
2020          68          44
2030          65          42
2040          70          36
2050          71          39
2060          67          39
2070          71          36
2080          65          45
2090          66          42
2100          69          39
2110          69          38
2120          73          38
2130          70          36
2140          64          41
2150          70          35
2160          72          43
2170          70          32
2180          69          45
2190          72          41
2200          72          44
2210          69          43
2220          69          41
2230          70          39
2240          69          38
2250          70          37
2260          71          42
2270          69          48
2280          70          42
2290          67          44
2300          67          40
2310          72          40
2320          72          36
2330          73          38
2340          70          37
2350          69          41
2360          71          35
2370          64          44
2380          70          37
2390          69          40
2400          69          42
2410          74          35
2420          66          36
2430          68          37
2440          71          49
2450          67          35
2460          69          40
2470          71          31
2480          65          37
2490          68          39
2500          69          35
2510          71          38
2520          69          39
2530          70          39
2540          66          43
2550          70          41
2560          65          43
2570          66          46
2580          70          34
2590          64          42
2600          68          35
2610          66          38
2620          66          33
2630          68          35
2640          63          39
2650          62          34
2660          66          37
2670          63          38
2680          65          36
2690          61          40
2700          63          44
2710          65          43
2720          66          35
2730          66          38
2740          64          35
2750          63          39
2760          66          38
2770          63          39
2780          66          41
2790          68          43
2800          67          43
2810          65          39
2820          64          39
2830          67          34
2840          67          42
2850          69          32
2860          64          39
2870          64          33
2880          66          46
2890          65          39
2900          66          38
2910          67          39
2920          66          42
2930          67          42
2940          68          40
2950          66          42
2960          67          37
2970          68          37
2980          68          39
2990          68          47
3000          70          43
3010          68          39
3020          64          41
3030          68          37
3040          68          31
3050          70          34
3060          69          35
3070          68          37
3080          70          37
3090          70          29
3100          71          35
3110          68          34
3120          68          32
3130          67          35
3140          70          42
3150          66          38
3160          68          33
3170          71          42
3180          66          42
3190          69          39
3200          69          38
3210          69          35
3220          74          37
3230          69          38
3240          68          33
3250          68          34
3260          72          37
3270          68          44
3280          67          45
3290          70          44
3300          69          39
3310          72          39
3320          71          31
3330          72          39
3340          70          38
3350          75          43
3360          72          37
3370          69          33
3380          71          40
3390          73          38
3400          73          32
3410          67          46
3420          74          33
3430          69          36
3440          71          29
3450          69          40
3460          66          42
3470          69          34
3480          71          32
3490          72          35
3500          71          35
3510          68          40
3520          70          32
3530          69          36
3540          68          35
3550          71          39
3560          70          31
3570          68          33
3580          67          44
3590          71          30
3600          69          31
3610          70          39
3620          73          34
3630          68          38
3640          69          35
3650          70          38
3660          71          49
3670          71          36
3680          71          42
3690          72          43
3700          71          40
3710          71          36
3720          69          44
3730          67          48
3740          70          45
3750          69          46
3760          70          42
3770          70          39
3780          72          43
3790          68          48
3800          65          44
3810          67          45
3820          68          37
3830          71          40
3840          66          43
3850          69          41
3860          69          40
3870          70          34
3880          72          34
3890          72          39
3900          71          39
3910          67          47
3920          73          42
3930          73          41
3940          75          37
3950          74          40
3960          74          41
3970          73          40
3980          73          38
3990          73          43
4000          71          44
4010          70          45
4020          71          38
4030          73          39
4040          69          40
4050          68          50
4060          74          43
4070          70          40
4080          76          35
4090          75          32
4100          73          41
4110          74          36
4120          71          45
4130          75          40
4140          72          47
4150          72          34
4160          74          26
4170          67          43
4180          69          35
4190          70          35
4200          70          44
4210          66          39
4220          68          48
4230          68          39
4240          71          40
4250          67          37
4260          71          45
4270          76          36
4280          77          43
4290          73          36
4300          76          43
4310          78          39
4320          80          36
4330          73          43
4340          74          40
4350          78          41
4360          78          36
4370          75          41
4380          73          41
4390          72          44
4400          73          36
4410          73          41
4420          74          37
4430          74          46
4440          75          37
4450          74          37
4460          72          41
4470          72          39
4480          74          40
4490          72          37
4500          70          45
4510          71          40
4520          75          39
4530          74          40
4540          75          35
4550          72          40
4560          76          49
4570          77          40
4580          74          41
4590          76          38
4600          76          47
4610          72          46
4620          70          41
4630          73          40
4640          72          44
4650          71          44
4660          71          44
4670          74          43
4680          75          38
4690          73          48
4700          77          47
4710          70          44
4720          75          35
4730          72          36
4740          67          45
4750          74          41
4760          71          39
4770          68          36
4780          74          39
4790          73          40
4800          73          35
4810          74          38
4820          74          41
4830          72          43
4840          77          37
4850          68          55
4860          76          45
4870          73          54
4880          73          40
4890          72          42
4900          73          43
4910          74          41
4920          71          37
4930          70          43
4940          70          42
4950          69          49
4960          71          41
4970          68          41
4980          68          42
4990          70          43
5000          72          40
5010          73          42
5020          73          42
5030          71          41
5040          70          50
5050          73          46
5060          74          44
5070          69          39
5080          75          41
5090          70          42
5100          69          43
5110          71          35
5120          71          37
5130          70          47
5140          67          42
5150          71          39
5160          66          39
5170          65          38
5180          69          40
5190          70          39
5200          68          45
5210          72          37
5220          69          38
5230          69          40
5240          69          47
5250          70          39
5260          66          43
5270          67          51
5280          68          33
5290          68          37
5300          72          33
5310          69          42
5320          69          43
5330          69          40
5340          72          40
5350          72          38
5360          61          47
5370          69          45
5380          73          38
5390          72          36
5400          71          36
5410          67          49
5420          69          42
5430          69          37
5440          66          37
5450          66          38
5460          70          40
5470          66          43
5480          71          40
5490          71          41
5500          72          40
5510          69          40
5520          74          32
5530          68          46
5540          70          40
5550          70          43
5560          71          35
5570          73          40
5580          71          36
5590          72          47
5600          69          42
5610          71          38
5620          73          38
5630          70          41
5640          71          38
5650          70          31
5660          71          36
5670          74          37
5680          75          39
5690          69          43
5700          68          37
5710          72          41
5720          73          42
5730          67          48
5740          69          50
5750          67          48
5760          72          42
5770          62          48
5780          62          45
5790          66          42
5800          66          42
5810          66          43
5820          66          47
5830          63          44
5840          66          38
5850          68          43
5860          65          38
5870          71          46
5880          69          35
5890          68          39
5900          68          35
5910          68          43
5920          66          36
5930          70          44
5940          69          41
5950          67          40
5960          67          36
5970          69          35
5980          68          33
5990          67          32
6000          67          38
6010          66          40
6020          63          50
6030          67          40
6040          66          46
6050          68          37
6060          66          34
6070          71          34
6080          66          39
6090          68          33
6100          70          32
6110          65          40
6120          69          46
6130          70          36
6140          71          39
6150          71          38
6160          68          34
6170          68          42
6180          73          38
6190          73          31
6200          76          39
6210          71          39
6220          66          42
6230          71          39
6240          74          38
6250          72          36
6260          70          47
6270          72          39
6280          70          41
6290          71          37
6300          69          42
6310          72          38
6320          71          36
6330          73          37
6340          72          41
6350          71          36
6360          70          39
6370          73          33
6380          71          36
6390          69          44
6400          73          38
6410          67          40
6420          66          42
6430          73          43
6440          68          42
6450          66          50
6460          73          39
6470          71          41
6480          67          44
6490          68          40
6500          71          40
6510          73          42
6520          67          42
6530          74          34
6540          72          44
6550          69          47
6560          73          45
6570          75          34
6580          75          40
6590          73          35
6600          71          39
6610          70          47
6620          74          42
6630          74          42
6640          70          41
6650          73          43
6660          73          41
6670          71          43
6680          72          49
6690          68          45
6700          73          45
6710          72          43
6720          72          37
6730          74          43
6740          73          37
6750          76          42
6760          76          39
6770          75          45
6780          74          39
6790          71          38
6800          69          48
6810          66          40
6820          70          48
6830          75          39
6840          70          46
6850          73          51
6860          73          43
6870          73          36
6880          76          41
6890          75          44
6900          75          45
6910          71          43
6920          67          50
6930          74          41
6940          73          40
6950          71          44
6960          69          38
6970          71          41
6980          69          46
6990          74          48
7000          72          42
7010          74          46
7020          73          34
7030          67          46
7040          70          44
7050          73          41
7060          74          41
7070          71          50
7080          68          39
7090          72          39
7100          70          46
7110          70          45
7120          71          41
7130          71          43
7140          69          42
7150          70          46
7160          67          40
7170          69          40
7180          70          40
7190          66          46
7200          69          46
7210          69          41
7220          72          42
7230          66          50
7240          68          48
7250          71          39
7260          71          45
7270          70          52
7280          69          53
7290          71          49
7300          69          45
7310          71          52
7320          73          41
7330          67          43
7340          75          47
7350          68          49
7360          72          38
7370          70          41
7380          73          39
7390          70          36
7400          68          40
7410          75          45
7420          73          45
7430          67          44
7440          71          44
7450          72          43
7460          76          37
7470          72          39
7480          73          40
7490          78          39
7500          71          53
7510          69          33
7520          70          42
7530          72          44
7540          69          44
7550          72          36
7560          70          40
7570          68          46
7580          74          43
7590          73          37
7600          74          36
7610          76          36
7620          75          38
7630          74          37
7640          72          53
7650          73          35
7660          72          45
7670          70          44
7680          72          45
7690          72          44
7700          75          42
7710          72          45
7720          73          39
7730          70          45
7740          74          36
7750          70          50
7760          72          41
7770          73          41
7780          74          37
7790          73          41
7800          71          42
7810          74          44
7820          73          37
7830          73          48
7840          71          43
7850          72          46
7860          72          48
7870          69          41
7880          74          43
7890          74          45
7900          70          53
7910          77          41
7920          71          40
7930          74          41
7940          73          45
7950          72          44
7960          70          40
7970          72          43
7980          70          40
7990          72          47
8000          71          42
8010          69          43
8020          73          39
8030          74          38
8040          72          41
8050          72          45
8060          73          46
8070          68          51
8080          75          42
8090          74          40
8100          73          49
8110          69          42
8120          70          45
8130          73          45
8140          72          45
8150          69          43
8160          72          39
8170          73          42
8180          71          54
8190          72          42
8200          71          49
8210          74          48
8220          72          50
8230          75          36
8240          67          48
8250          70          43
8260          72          41
8270          68          46
8280          71          44
8290          69          36
8300          71          44
8310          72          44
8320          77          38
8330          70          45
8340          71          48
8350          73          50
8360          73          50
8370          74          51
8380          75          44
8390          72          50
8400          75          46
8410          68          47
8420          77          51
8430          73          40
8440          74          51
8450          76          47
8460          72          47
8470          77          39
8480          68          49
8490          71          49
8500          72          49
8510          74          45
8520          71          48
8530          74          44
8540          75          35
8550          69          44
8560          75          44
8570          73          43
8580          75          50
8590          73          47
8600          71          38
8610          73          43
8620          75          46
8630          76          42
8640          69          47
8650          74          43
8660          73          44
8670          75          37
8680          77          46
8690          75          45
8700          74          42
8710          73          46
8720          73          47
8730          74          40
8740          73          37
8750          74          45
8760          74          43
8770          74          46
8780          74          45
8790          69          40
8800          74          40
8810          72          33
8820          75          42
8830          69          41
8840          76          36
8850          75          39
8860          70          42
8870          72          41
8880          73          44
8890          71          42
8900          75          42
8910          72          39
8920          73          49
8930          74          45
8940          73          46
8950          78          42
8960          75          44
8970          72          44
8980          71          43
8990          74          42
9000          76          38
9010          73          51
9020          71          55
9030          75          46
9040          74          50
9050          74          42
9060          73          46
9070          72          42
9080          68          48
9090          72          37
9100          71          50
9110          72          38
9120          74          45
9130          70          52
9140          69          38
9150          73          33
9160          69          50
9170          73          41
9180          72          41
9190          75          34
9200          70          37
9210          70          39
9220          73          48
9230          70          42
9240          73          35
9250          72          48
9260          73          44
9270          70          40
9280          77          40
9290          71          46
9300          73          38
9310          73          46
9320          71          44
9330          72          45
9340          72          43
9350          74          37
9360          73          45
9370          74          46
9380          75          46
9390          73          46
9400          74          42
9410          72          41
9420          77          48
9430          77          44
9440          77          38
9450          74          46
9460          75          47
9470          77          46
9480          73          42
9490          74          51
9500          78          47
9510          72          44
9520          73          45
9530          76          47
9540          76          44
9550          73          44
9560          71          38
9570          76          51
9580          70          46
9590          71          42
9600          71          43
9610          72          50
9620          72          46
9630          69          40
9640          77          43
9650          73          47
9660          76          39
9670          74          43
9680          77          49
9690          77          56
9700          74          52
9710          75          44
9720          75          48
9730          75          44
9740          79          48
9750          73          48
9760          75          47
9770          76          46
9780          71          52
9790          74          50
9800          76          47
9810          75          47
9820          73          42
9830          69          50
9840          70          45
9850          73          39
9860          72          43
9870          72          54
9880          69          51
9890          73          41
9900          75          42
9910          70          47
9920          74          39
9930          70          45
9940          74          48
9950          73          40
9960          72          50
9970          73          49
9980          76          40
9990          69          44
10000          71          54
