Time   C(t)   
ps   
0           1           1  6.71012e-10   0.0247836
10    0.756269    0.870218   -0.639798    0.013733
20    0.725341     0.85375     -1.2789   0.0026823
30    0.702623    0.841653   -0.267488  0.00197765
40    0.685788    0.832689    -1.19952  0.00153808
50    0.671862    0.825273   -0.774699  0.00139897
60    0.657808     0.81779     1.40722  0.00152956
70     0.64127    0.808984  -0.00319605  0.00126438
80    0.632521    0.804325     1.43304  0.000944814
90    0.622374    0.798922     1.53864  0.00106497
100    0.611221    0.792983    0.687741  0.000889423
110    0.604586     0.78945      1.0327  0.000780296
120    0.595615    0.784674    0.766124  0.000893027
130    0.586725     0.77994    0.499909  0.000741422
140    0.580787    0.776778    0.978679  0.000762877
150    0.571468    0.771815     1.03143  0.000920472
160    0.562378    0.766975     1.53695  0.000922382
170     0.55302    0.761992    0.951616  0.000718015
180    0.548017    0.759329     1.18991  0.00046598
190      0.5437     0.75703    0.231356  0.000755763
200    0.532902     0.75128     1.29653  0.000742042
210     0.52886    0.749127     1.40239  0.000519395
220    0.522514    0.745749     2.44013  0.000697598
230    0.514908    0.741698     1.58858  0.000649008
240    0.509534    0.738837    0.923046  0.000432774
250    0.506252    0.737089     0.94907  0.000373578
260    0.502062    0.734859     1.37473  0.000452039
270    0.497211    0.732275     1.37439  0.000442937
280    0.493204    0.730141     1.42776  0.000453913
290    0.488133    0.727441      1.4808  0.000399429
300    0.485215    0.725888     1.32091  0.000375228
310    0.480629    0.723445     1.53355  0.000454037
320    0.476134    0.721052    0.629197  0.000311142
330    0.474406    0.720132    0.974366  0.000349867
340    0.469137    0.717326    0.549098  0.000441411
350    0.465577    0.715431     1.45368  0.000341159
360    0.462314    0.713693     1.10719  0.00029884
370    0.459601    0.712249     1.42597  0.000365388
380    0.455006    0.709802     2.19815  0.000391409
390    0.451772     0.70808     1.16004  0.000283079
400    0.449344    0.706787     1.63866  0.000354983
410    0.444673      0.7043     1.82542   0.0003428
420    0.442488    0.703137    0.494478  0.000231482
430    0.440043    0.701835    0.733682  0.000262594
440    0.437237     0.70034    0.813286  0.000309071
450    0.433862    0.698543      1.1597  0.000317407
460    0.430888     0.69696    0.893124  0.000261767
470    0.428626    0.695755    0.520762  0.000216202
480    0.426564    0.694657    0.361033  0.000314154
490    0.422343     0.69241    0.334282  0.000420035
500    0.418164    0.690184    0.494192  0.000312951
510    0.416084    0.689077   0.0683789  0.000218436
520    0.413795    0.687858     1.10584  0.000236949
530    0.411345    0.686554    0.280181  0.000299366
540    0.407808     0.68467    0.492997  0.000317971
550    0.404986    0.683167    0.120375  0.000313516
560    0.401537    0.681331    0.599301  0.000270151
570    0.399583     0.68029    0.785547  0.000288968
580    0.395758    0.678254     1.45067  0.000292097
590    0.393741     0.67718     1.39711  0.000188935
600    0.391979    0.676242     1.55682  0.000311501
610    0.387511    0.673862   -0.385979  0.000332841
620    0.385322    0.672697    0.464843  0.000344108
630    0.380629    0.670198    0.279532  0.000443761
640    0.376447    0.667971    0.491724  0.000350757
650    0.373614    0.666462   -0.332995  0.000194862
660     0.37255    0.665896    0.491802  0.000289488
670    0.367824    0.663379   -0.865294  0.000397256
680    0.364605    0.661665    0.385212  0.000214782
690    0.363528    0.661092    0.358513  0.000128718
700    0.362031    0.660294  -0.0145255  0.000260322
710    0.358322     0.65832     1.34239  0.000355448
720    0.354922    0.656509    0.225327  0.000182465
730    0.354672    0.656376   -0.280792  0.000135647
740    0.352209    0.655064    0.277765  0.000323091
750    0.348211    0.652936     0.70415  0.000210141
760    0.348006    0.652827   -0.653518  0.000303364
770    0.342143    0.649705   -0.121219  0.000282514
780    0.342356    0.649818   -0.174956  0.000339071
790    0.335362    0.646094     0.41108  0.00050386
800    0.332278    0.644452  -0.0145254  0.000125505
810    0.332852    0.644757   0.0644295  0.000112672
820    0.330025    0.643252    0.410378  0.000381483
830    0.325222    0.640695    0.064819  0.000270368
840    0.324618    0.640373   -0.387694  0.000153837
850    0.322145    0.639056   -0.707073  0.000215459
860    0.320308    0.638078    -1.26646  0.000312224
870    0.315901    0.635731   -0.334892  0.000275256
880    0.314803    0.635147   -0.575057  0.000174242
890    0.312416    0.633876     -1.5594  0.000230905
900    0.310185    0.632688   -0.841219  0.000314623
910    0.306124    0.630525   -0.601315  0.000317915
920    0.303827    0.629302    0.116971  0.000219163
930     0.30174    0.628191    0.143436  0.000200827
940     0.29981    0.627163  -0.0697173  0.000309083
950    0.295559      0.6249  -0.0158508  0.000266446
960    0.294481    0.624326    0.223119  0.00021594
970     0.29124      0.6226    0.169824  0.000283897
980    0.288803    0.621302    0.382743  0.000214149
990    0.286957    0.620319   -0.469429  0.000312279
1000    0.282558    0.617977    0.568808  0.000258531
1010    0.281786    0.617566    0.594546  0.00010713
1020    0.280415    0.616836    0.940729  0.000186248
1030    0.278061    0.615583     1.36602  9.67756e-05
1040     0.27848    0.615805    0.354563  0.000219785
1050    0.273666    0.613242    0.195276  0.000359148
1060    0.271297    0.611981    0.487852  0.000168853
1070    0.270289    0.611444    0.594416  0.000215827
1080     0.26698    0.609682     0.80705  0.00016142
1090     0.26706    0.609725    0.673838  6.60047e-05
1100     0.26566    0.608979    0.513694  0.000197767
1110    0.263105    0.607619   -0.231239  0.000294346
1120    0.259773    0.605844     1.28556  0.000385794
1130    0.255389     0.60351    0.593844  0.000312206
1140    0.253529     0.60252     1.31239  0.000164185
1150    0.252105    0.601762     2.05667  0.000172861
1160    0.250072    0.600679     1.76425  0.000275429
1170    0.246597    0.598828     2.13667  0.000311987
1180    0.243832    0.597356     1.76425  0.000273946
1190    0.241118    0.595911     2.19022  0.00014144
1200    0.241003     0.59585     2.26959  0.000180802
1210    0.237502    0.593985     2.66852  0.000164364
1220    0.237716      0.5941     3.04039  8.42392e-05
1230    0.235817    0.593088     2.85394  0.00020685
1240    0.233579    0.591897      2.3218  0.000226875
1250     0.23128    0.590672      3.1201  0.000260894
1260    0.228361    0.589118     3.20017  0.000244658
1270    0.226386    0.588067     3.17306  0.000164134
1280    0.225078     0.58737     2.74696  0.000175731
1290    0.222872    0.586195      3.2263  0.000156473
1300    0.221949    0.585704     1.54941  0.000213091
1310     0.21861    0.583926     2.77426  0.000199372
1320    0.217962    0.583581     1.57554  0.000104292
1330    0.216524    0.582815     1.92188  0.000115728
1340    0.215647    0.582348     1.89484  0.000130139
1350    0.213921    0.581429     2.53375  9.37089e-05
1360    0.213773     0.58135      3.0659  0.000156192
1370    0.210797    0.579766     2.42776  0.000156394
1380    0.210645    0.579685     2.16111  8.32535e-05
1390    0.209132    0.578879     2.72044  3.92348e-06
1400    0.210567    0.579643     2.90591  -4.13276e-05
1410    0.209959    0.579319     2.40052  0.000143287
1420    0.207701    0.578117     1.84201  0.000149225
1430    0.206974     0.57773      1.1758  0.000175305
1440    0.204195     0.57625     1.04324  0.000284042
1450    0.201294    0.574705     1.20289  0.000224721
1460      0.1997    0.573857     1.23006  4.79549e-05
1470    0.200334    0.574195     1.17601  0.000159886
1480    0.196503    0.572154     1.73532  0.000142805
1490    0.197478    0.572674     1.20255  5.44406e-05
1500    0.195414    0.571574     1.38919  0.000215329
1510    0.193172    0.570381     1.73506  0.000250355
1520    0.190407    0.568908    0.749987  0.000158717
1530    0.189997     0.56869     1.33491  0.000127497
1540    0.187857     0.56755     1.14876  0.00015659
1550    0.186866    0.567023     1.22834  0.000107891
1560    0.185699    0.566401     1.78666  0.000278899
1570    0.181288    0.564053     1.86666  0.00030544
1580     0.17959    0.563149     1.20193  0.000126451
1590    0.178759    0.562706     2.15905  9.19573e-05
1600    0.177751    0.562169      2.4254  0.000112514
1610    0.176508    0.561508     2.18596  6.61828e-05
1620    0.176427    0.561464     2.29219  0.000142217
1630    0.173664    0.559993     3.11722  0.000238702
1640    0.171653    0.558922     2.69133  0.000239318
1650    0.168878    0.557445     1.17463  0.000213516
1660    0.167383    0.556649     2.39878  0.000219952
1670    0.164479    0.555102     1.86624  0.000179364
1680    0.163796    0.554738     1.83939  6.67125e-06
1690    0.164345    0.555031     1.70581  0.00018608
1700    0.160074    0.552757     1.70607   0.0001068
1710    0.162209    0.553894     1.04064  0.000104489
1720    0.157984    0.551644      2.3714  0.000263664
1730    0.156936    0.551086     2.13181  6.65694e-05
1740    0.156653    0.550935     1.67909  9.34064e-05
1750    0.155068    0.550091     2.05163  7.87534e-05
1760    0.155078    0.550096     2.15799  0.000168002
1770    0.151708    0.548302     2.13155  0.000230519
1780    0.150467    0.547641     2.21118  0.000159892
1790     0.14851    0.546599     1.38664  0.000124531
1800    0.147977    0.546315     1.41311  6.23271e-05
1810    0.147263    0.545935     2.26421  5.05507e-05
1820    0.146966    0.545777     2.29076  4.47638e-05
1830    0.146368    0.545459     1.67849  0.000140516
1840    0.144155     0.54428     1.57211  0.000185644
1850    0.142655    0.543482     1.43913  0.000258135
1860    0.138993    0.541531     2.07818  0.000180595
1870    0.139043    0.541558      1.7315  0.000103128
1880     0.13693    0.540433     2.18427  1.59964e-05
1890    0.138723    0.541388     1.89133  -2.89358e-05
1900    0.137509    0.540741     2.15684  0.000100543
1910    0.136713    0.540317     1.57146  4.64544e-05
1920     0.13658    0.540247      1.6513  2.24039e-05
1930    0.136264    0.540079     1.73106  4.97118e-05
1940    0.135586    0.539717     1.83759  1.64442e-05
1950    0.135936    0.539904     1.67797  -7.44835e-05
1960    0.137075     0.54051     1.73108  7.4327e-06
1970    0.135787    0.539824     1.86377  6.51143e-05
1980    0.135773    0.539817     1.59751  7.75278e-05
1990    0.134236    0.538999     1.30491  8.9819e-05
2000    0.133977     0.53886     2.04958  2.59981e-05
2010    0.133716    0.538722     2.15619  -5.95398e-05
2020    0.135167    0.539494     1.64997  1.69583e-05
2030    0.133377    0.538541     1.88949  0.000105675
2040    0.133054    0.538369     2.02285  4.77083e-05
2050    0.132423    0.538033      2.2625   4.168e-05
2060     0.13222    0.537925      2.2886  0.000134118
2070    0.129741    0.536605     2.95432  0.000100414
2080    0.130212    0.536856     2.34213  1.14232e-05
2090    0.129512    0.536483     2.18204  9.16772e-05
2100    0.128378    0.535879     2.23531  4.54806e-05
2110    0.128603    0.535999     2.95372  0.000123093
2120    0.125917    0.534569     2.52853  0.000175944
2130    0.125084    0.534125     1.70345  6.78509e-05
2140     0.12456    0.533846     2.07542  0.000136413
2150    0.122355    0.532672     1.91582  9.30764e-05
2160    0.122698    0.532855     2.39462  9.03729e-05
2170    0.120548     0.53171      2.4475  0.000268293
2180    0.117332    0.529998     2.71421  0.000215811
2190    0.116232    0.529412     2.82012  9.13806e-05
2200    0.115505    0.529024     2.68706  9.16209e-05
2210    0.114399    0.528436     2.42103  0.000189057
2220    0.111723    0.527011     3.11337  0.000173739
2230    0.110925    0.526586     2.74059  3.59602e-05
2240    0.111004    0.526628     3.29902  0.000143152
2250    0.108062    0.525061     2.71384  0.000130732
2260     0.10839    0.525236     2.76672  7.44555e-05
2270    0.106572    0.524268     2.12786  0.000137717
2280    0.105635    0.523769      2.3941  0.000169776
2290    0.103177     0.52246     2.47368  7.18698e-05
2300    0.104198    0.523004     3.43156  -1.97124e-05
2310    0.103571     0.52267     3.03262  1.19101e-05
2320     0.10396    0.522877     2.26065  0.000107433
2330    0.101423    0.521526     2.63299  0.000155297
2340    0.100854    0.521223     2.28637  0.000187737
2350   0.0976678    0.519527     2.34026  0.000188062
2360   0.0970924     0.51922     2.73948  7.99965e-05
2370   0.0960679    0.518675     2.49999  0.000124995
2380   0.0945925    0.517889     2.18022  9.64288e-05
2390   0.0941393    0.517648     2.60634  4.53908e-05
2400   0.0936847    0.517406     2.76545  2.62216e-05
2410   0.0936149    0.517369     2.55258  4.5637e-05
2420    0.092772     0.51692     2.52567  0.00012307
2430   0.0911535    0.516058     2.76568  5.87787e-05
2440   0.0915964    0.516294     2.52567  6.23159e-05
2450   0.0899071    0.515394     2.28631  0.000139989
2460   0.0887966    0.514803     2.02049  0.000117708
2470    0.087553    0.514141     3.05813  0.000176448
2480   0.0852677    0.512924     3.08517  3.06427e-05
2490   0.0869401    0.513814     3.29728  -4.38407e-05
2500   0.0861445    0.513391     3.51046  1.12444e-05
2510   0.0867152    0.513695     3.69621  4.39804e-05
2520   0.0852649    0.512922     3.21703  0.000148497
2530   0.0837453    0.512113     3.35018  0.000220837
2540   0.0808481    0.510571     2.68519  0.000191861
2550   0.0799081     0.51007     2.23302  9.74197e-05
2560   0.0788997    0.509533     3.37675  5.49786e-05
2570   0.0788085    0.509485     3.03068  -4.67621e-05
2580    0.079835    0.510031     2.97709  7.83339e-05
2590   0.0772418     0.50865     3.03088  0.000190401
2600    0.076027    0.508003       2.871  4.24247e-05
2610   0.0763933    0.508198     2.89785  3.27419e-05
2620   0.0753721    0.507655     3.53643  0.000128723
2630   0.0738189    0.506828     2.71161  6.27358e-05
2640   0.0741174    0.506987      2.4984  1.99027e-05
2650   0.0734208    0.506616     2.81799  4.31295e-05
2660   0.0732548    0.506527     2.87097  7.65879e-05
2670   0.0718891      0.5058     2.63138  8.34052e-05
2680   0.0715867    0.505639     2.39179  0.000117053
2690    0.069548    0.504553     1.67353  0.000113925
2700   0.0693082    0.504426     1.56689  -2.62216e-05
2710   0.0700724    0.504833     2.04566  0.000107819
2720   0.0671518    0.503278     2.04573  6.42579e-05
2730   0.0687873    0.504148     2.12505  1.43278e-05
2740   0.0668653    0.503125     2.33836  6.54906e-07
2750   0.0687742    0.504141      1.6462  -0.000110276
2760   0.0690708    0.504299     2.20481  0.000108653
2770   0.0666011    0.502984     1.83227  9.8623e-05
2780   0.0670983    0.503249     1.56616  -1.93428e-05
2790    0.066988     0.50319     1.35306  1.10652e-05
2800    0.066877    0.503131     1.88587  -8.73115e-05
2810   0.0687342     0.50412      1.4597  7.74041e-06
2820   0.0667222    0.503049     1.85907  7.89497e-05
2830   0.0671552    0.503279     1.35337  8.27447e-05
2840   0.0650673    0.502168      1.5398  4.1848e-05
2850   0.0663182    0.502834     1.22016  2.8516e-05
2860    0.064497    0.501864     1.14042  0.000100263
2870    0.064313    0.501766     1.40645  -0.000122091
2880   0.0669388    0.503164    0.900257  4.93478e-05
2890    0.063326     0.50124      1.3262  0.000258706
2900   0.0617647    0.500409     1.51273  8.06065e-05
2910   0.0617139    0.500382    0.900491  6.71459e-05
2920   0.0604218    0.499694     1.59197  7.41588e-05
2930   0.0602307    0.499592      1.1393  0.000136651
2940   0.0576888    0.498239     1.03303  0.000102244
2950   0.0581858    0.498503    0.500961  2.2443e-06
2960   0.0576439    0.498215     1.53839  2.20239e-06
2970   0.0581418     0.49848    0.766396  5.75632e-06
2980   0.0575288    0.498154    0.819951  9.96584e-05
2990   0.0561486    0.497419    0.819873  7.19985e-05
3000   0.0560888    0.497387    0.660301  -2.19287e-05
3010   0.0565872    0.497652    0.420603  3.74712e-05
3020   0.0553394    0.496988    0.393982  0.000142461
3030    0.053738    0.496135    0.287444  0.000121805
3040   0.0529033    0.495691    0.287782  0.000146807
3050   0.0508019    0.494572    0.607031  9.79178e-05
3060   0.0509449    0.494648    -0.27132  0.00015821
3070   0.0476376    0.492887    0.314871  0.00015136
3080   0.0479177    0.493036   -0.377416  3.55178e-05
3090   0.0469273    0.492508    0.234539  7.2537e-06
3100   0.0477726    0.492959    0.660067  -1.73785e-05
3110   0.0472749    0.492694    0.420499  6.04969e-05
3120   0.0465627    0.492314    0.846287  7.48642e-05
3130   0.0457776    0.491896     0.68674  1.81703e-05
3140   0.0461993    0.492121     0.81925  5.39374e-05
3150   0.0446988    0.491322    0.580255  0.000107452
3160   0.0440503    0.490976     1.08588  1.49297e-05
3170   0.0444002    0.491163         0.5  3.65142e-05
3180     0.04332    0.490588     1.21875  0.000108191
3190   0.0422364    0.490011    0.766058  0.000241308
3200   0.0384938    0.488018    0.340843  0.000249003
3210   0.0372564    0.487359    0.553451  -2.00259e-05
3220   0.0388943    0.488231    0.952695  -5.95257e-05
3230   0.0384469    0.487993    0.766189  0.000109811
3240   0.0366981    0.487062    0.234253  9.55697e-05
3250   0.0365355    0.486975    0.739333  4.52733e-05
3260   0.0357927    0.486579   0.0740571  8.89039e-05
3270   0.0347574    0.486028    0.153895  0.00021986
3280   0.0313955    0.484238    0.633211  0.000267599
3290   0.0294054    0.483178    0.153999  0.000137393
3300   0.0286476    0.482775     0.39341  0.000141548
3310   0.0265745    0.481671   0.0742907  0.000200299
3320   0.0246416    0.480642   -0.218389  6.92308e-05
3330   0.0251898    0.480934    0.366789  7.38231e-06
3340    0.024494    0.480563   -0.405103  8.80056e-05
3350   0.0234297    0.479996   -0.138837  0.000143339
3360   0.0216272    0.479037   -0.537899  0.000151108
3370   0.0204076    0.478387   -0.165718  -1.79464e-05
3380   0.0219861    0.479228   -0.591505  -3.62651e-05
3390   0.0211329    0.478773    0.153687  3.73901e-05
3400   0.0212383     0.47883    0.472599  7.96719e-06
3410   0.0209735    0.478689    0.446029  -1.42973e-05
3420   0.0215243    0.478982  -0.00637902  -8.48433e-05
3430   0.0226704    0.479592    0.179425  -6.93453e-06
3440    0.021663    0.479056    0.286222  0.000164216
3450   0.0193861    0.477843  -0.00632736  0.000239267
3460   0.0168776    0.476508   -0.218935  6.80975e-05
3470   0.0180241    0.477118   -0.431933  6.85704e-05
3480   0.0155062    0.475777    0.792134  9.09971e-05
3490   0.0162042    0.476149    0.153168  -0.000144968
3500   0.0184056    0.477321   0.0726013  -1.74707e-05
3510   0.0165536    0.476335    0.738241  0.000132767
3520   0.0157502    0.475907    0.631704  -5.90753e-05
3530   0.0177351    0.476964    0.285443  3.53864e-05
3540   0.0150425     0.47553    0.206203  0.000148626
3550   0.0147626    0.475381    0.711361  4.31997e-05
3560   0.0141785     0.47507    0.764941  7.36496e-05
3570   0.0132896    0.474597    0.126182  0.000146062
3580   0.0112573    0.473515    0.179503  6.27104e-05
3590   0.0120354    0.473929    0.285625  1.35557e-05
3600   0.0109861    0.473371    0.525166  -1.32787e-05
3610    0.012301    0.474071    0.498492  -1.31331e-05
3620   0.0112488     0.47351     1.00409  4.41008e-05
3630    0.011419    0.473601    0.631392  3.66597e-05
3640   0.0105156     0.47312    0.471819  2.51496e-05
3650    0.010916    0.473333    0.950278  0.000136945
3660  0.00777672    0.471662     0.65804  0.000156386
3670  0.00778825    0.471668    0.604485  4.5167e-05
3680  0.00687338    0.471181    0.710814  6.45574e-05
3690   0.0064971     0.47098    0.151738  0.000107416
3700  0.00472507    0.470037    0.844026  8.82575e-05
3710  0.00473195     0.47004    0.816962  6.14679e-05
3720  0.00349571    0.469382    0.498103  0.000147179
3730  0.00178838    0.468473    0.710945  3.45832e-05
3740  0.00280405    0.469014    0.338218  5.44102e-05
3750  0.000700172    0.467893    0.870725  0.000152101
3760  -0.00023798    0.467394     0.95033  6.65583e-05
3770  -0.000630994    0.467185     1.13673  -5.48188e-05
3780  0.000858396    0.467978     1.58852  0.000153389
3790  -0.00369877    0.465551     1.18992  0.000318707
3800  -0.00551574    0.464584     1.40276  0.000114971
3810  -0.00599819    0.464327     1.53535  -8.98582e-05
3820  -0.00371858    0.465541     1.16257  2.08149e-05
3830  -0.00641449    0.464105     1.50873  0.00023041
3840  -0.00832678    0.463087     2.25387  8.44264e-05
3850  -0.00810302    0.463206     2.65278  6.89818e-05
3860  -0.00970642    0.462352     2.06737  0.000108843
3870  -0.0102799    0.462047      2.1204  0.00014517
3880  -0.0126098    0.460806     1.93462  0.000177466
3890  -0.0138292    0.460157      2.0142  -2.18643e-05
3900  -0.0121725    0.461039     2.97216  -3.37269e-05
3910  -0.0131547    0.460516     1.96111  5.02153e-05
3920  -0.0131768    0.460504     2.12082  5.85184e-05
3930   -0.014325    0.459893     2.04116  1.43253e-05
3940  -0.0134633    0.460352     2.30685  4.27519e-05
3950  -0.0151801    0.459438     1.98792  7.90589e-05
3960  -0.0150445     0.45951     2.04085  0.000107779
3970  -0.0173357     0.45829     2.09433  6.60433e-06
3980  -0.0151766    0.459439     2.09373  -7.01124e-05
3990  -0.0159334    0.459036     1.80102  0.00013273
4000  -0.0178312    0.458026     2.01363  0.000157502
4010  -0.0190835    0.457359     1.29519  0.000239684
4020  -0.0226249    0.455473     1.77471  0.000223965
4030  -0.0235628    0.454974     2.25333  -3.29685e-05
4040  -0.0219655    0.455824     2.35971  4.03821e-06
4050  -0.0236435    0.454931     2.25338  0.000147537
4060  -0.0249163    0.454253     2.20034  7.39882e-05
4070  -0.0251233    0.454143      2.0938  0.000136161
4080  -0.0276395    0.452803     1.88086  0.000107533
4090   -0.027274    0.452998     2.43962  -0.000127593
4100  -0.0250876    0.454162     1.48104  5.02517e-05
4110   -0.028279    0.452463     1.69409  0.000228404
4120  -0.0296557     0.45173     1.93374  4.89736e-06
4130  -0.0283769     0.45241     2.14609  4.26119e-05
4140   -0.030508    0.451276     1.32139  5.49671e-05
4150  -0.0294763    0.451825     1.64062  -3.06703e-06
4160  -0.0304466    0.451308     1.98654  -1.99838e-05
4170  -0.0290766    0.452038     1.93278  0.000122675
4180  -0.0329001    0.450002     2.17279  0.000286432
4190  -0.0348053    0.448988     2.49217  9.40923e-05
4200   -0.034782       0.449      1.6408  -2.34507e-06
4210  -0.0347584    0.449013     2.17255  -1.08048e-05
4220  -0.0345659    0.449115     1.40105  3.14657e-05
4230  -0.0353877    0.448677     1.37422  -7.8642e-05
4240   -0.032993    0.449953     1.85286  -0.000138045
4250  -0.0326268    0.450148     1.56008  -6.64575e-05
4260  -0.0316639     0.45066     1.21395  9.99607e-06
4270  -0.0328267    0.450041      1.9326  0.000120778
4280  -0.0340794    0.449374     1.29391  7.84852e-05
4290  -0.0343964    0.449205      1.6929  7.02551e-05
4300  -0.0354845    0.448626     1.34718  0.000151903
4310  -0.0374345    0.447588     1.29423  6.64575e-05
4320  -0.0368137    0.447918     1.63971  4.54076e-05
4330  -0.0383426    0.447104     1.13413  0.000105723
4340  -0.0389282    0.446792    0.761823  8.02623e-05
4350  -0.0399478    0.446249     1.37362  7.18558e-05
4360  -0.0403653    0.446027    0.947835  0.000102516
4370  -0.0419982    0.445157     1.21415  2.91318e-06
4380  -0.0404235    0.445996     1.31991  -6.20333e-05
4390  -0.0407575    0.445818     1.32038  2.90843e-05
4400  -0.0410052    0.445686    0.921109  -1.44623e-05
4410  -0.0404682    0.445972    0.947627  0.000103613
4420  -0.0430775    0.444583     0.92111  0.000129974
4430  -0.0430677    0.444588     1.45305  0.00015263
4440  -0.0461301    0.442957     1.45354  0.000179291
4450  -0.0466536    0.442679     1.53283  -1.80164e-05
4460  -0.0457697    0.443149     1.95862  8.79299e-05
4470  -0.0484121    0.441742     2.09186  9.23431e-05
4480  -0.0476166    0.442166     1.53296  6.20192e-05
4490  -0.0496525    0.441082     1.18722  8.85738e-05
4500  -0.0493881    0.441222     1.82572  1.79689e-05
4510  -0.0500119     0.44089     1.69269  0.000156022
4520  -0.0525085    0.439561     1.85237  6.7216e-05
4530  -0.0513562    0.440174      1.5595  6.33121e-05
4540  -0.0537748    0.438887     1.79907  0.000103503
4550  -0.0534263    0.439072     1.50618  2.34231e-05
4560  -0.0542432    0.438637     1.16039  0.000104301
4570  -0.0555123    0.437961     1.71931  0.000131625
4580  -0.0568757    0.437235     1.87894  7.79759e-05
4590  -0.0570718    0.437131     1.90527  6.48148e-05
4600   -0.058172    0.436545      1.6924  9.21333e-05
4610  -0.0589145     0.43615     1.98537  7.43996e-05
4620    -0.05966    0.435753     1.50631  0.000106453
4630  -0.0610436    0.435016     1.63901  0.000216043
4640  -0.0639809    0.433452     1.53291  0.000225852
4650  -0.0655606    0.432611     1.40006  8.0587e-05
4660  -0.0655926    0.432594     2.11827  1.69389e-05
4670  -0.0658994    0.432431     1.58618  0.000127069
4680   -0.068134    0.431241     1.82556  2.62804e-05
4690   -0.066425    0.432151     1.85172  2.21331e-05
4700  -0.0685766    0.431005     1.61275  0.000210958
4710  -0.0706441    0.429904     1.31991  6.39025e-05
4720  -0.0698547    0.430324     1.42598  7.83063e-05
4730  -0.0722103     0.42907     1.74521  0.00010612
4740  -0.0719771    0.429194     1.74526  -4.75757e-06
4750  -0.0721151    0.429121      1.1332  5.57199e-05
4760  -0.0730915    0.428601     1.31944  0.000200459
4770  -0.0761243    0.426986     1.21309  0.000102879
4780  -0.0751491    0.427505    0.946666  8.96428e-05
4790  -0.0779171    0.426031     1.18634  0.000108387
4800  -0.0773168    0.426351      1.5853  -7.89583e-05
4810   -0.076338    0.426872     1.47891  -9.3345e-05
4820  -0.0754499    0.427345     1.42557  0.000170588
4830  -0.0797497    0.425056      1.1332  0.000236944
4840  -0.0801888    0.424822     1.18626  2.97785e-05
4850  -0.0803453    0.424738     1.61197  6.18435e-06
4860  -0.0803125    0.424756      1.2127  0.000110863
4870  -0.0825626    0.423558     1.61173  0.000134899
4880  -0.0830105    0.423319     1.34583  -1.71851e-05
4890  -0.0822189    0.423741     1.95761  4.02641e-05
4900  -0.0838158     0.42289     1.71835  0.000150444
4910  -0.0852278    0.422139     1.45216  8.86351e-05
4920  -0.0855885    0.421947      1.6116  6.98268e-05
4930  -0.0866243    0.421395     1.53179  3.62623e-05
4940  -0.0863137     0.42156     1.50525  8.00386e-05
4950  -0.0882251    0.420543     1.85089  7.53034e-05
4960  -0.0878198    0.420758     1.21257  -1.63428e-05
4970  -0.0878982    0.420717     1.61142  5.15979e-05
4980  -0.0888517    0.420209     1.98397  3.71102e-05
4990  -0.0886404    0.420321     1.31866  2.26226e-05
