Time   Number   
ps   
0          46          24
10          44          25
20          48          25
30          44          33
40          42          27
50          46          29
60          46          24
70          40          30
80          42          23
90          41          24
100          41          27
110          40          28
120          37          26
130          39          26
140          40          26
150          42          28
160          42          26
170          41          29
180          40          26
190          40          29
200          39          28
210          43          28
220          41          25
230          40          28
240          44          23
250          37          27
260          38          27
270          35          30
280          38          25
290          44          27
300          40          29
310          39          28
320          40          26
330          39          26
340          39          28
350          41          31
360          39          30
370          35          28
380          43          31
390          40          29
400          46          30
410          43          30
420          40          32
430          42          28
440          42          27
450          42          34
460          43          32
470          44          27
480          44          31
490          42          32
500          41          25
510          36          32
520          43          34
530          46          32
540          47          32
550          44          34
560          41          36
570          48          29
580          44          29
590          46          32
600          43          32
610          45          33
620          47          32
630          48          31
640          49          31
650          42          33
660          44          35
670          39          35
680          46          33
690          39          31
700          41          32
710          43          25
720          46          27
730          42          32
740          39          29
750          39          24
760          41          27
770          40          27
780          43          26
790          48          28
800          42          29
810          44          28
820          45          27
830          42          24
840          44          27
850          43          30
860          45          32
870          45          27
880          37          33
890          41          30
900          45          27
910          43          26
920          42          22
930          40          26
940          44          22
950          38          24
960          38          19
970          40          25
980          40          23
990          41          26
1000          38          26
1010          39          27
1020          35          21
1030          40          23
1040          34          32
1050          34          24
1060          37          21
1070          37          27
1080          39          19
1090          39          20
1100          37          22
1110          36          23
1120          35          21
1130          36          28
1140          35          21
1150          38          24
1160          40          25
1170          38          24
1180          35          24
1190          35          32
1200          38          32
1210          35          26
1220          39          27
1230          36          29
1240          36          24
1250          39          28
1260          40          26
1270          41          27
1280          36          26
1290          36          21
1300          36          28
1310          36          29
1320          35          28
1330          37          25
1340          39          25
1350          32          26
1360          35          24
1370          34          29
1380          38          26
1390          36          32
1400          36          25
1410          33          27
1420          35          28
1430          33          20
1440          32          16
1450          35          23
1460          33          20
1470          37          19
1480          36          21
1490          35          22
1500          31          27
1510          34          22
1520          33          20
1530          32          21
1540          32          25
1550          31          20
1560          32          19
1570          31          17
1580          30          22
1590          33          21
1600          36          20
1610          31          20
1620          36          19
1630          34          19
1640          34          21
1650          35          20
1660          35          17
1670          36          24
1680          31          23
1690          32          21
1700          32          24
1710          36          22
1720          35          19
1730          34          26
1740          36          22
1750          36          22
1760          32          24
1770          32          24
1780          38          22
1790          34          28
1800          31          27
1810          35          29
1820          39          26
1830          35          33
1840          36          27
1850          35          28
1860          34          29
1870          33          27
1880          35          26
1890          35          23
1900          35          26
1910          34          28
1920          32          27
1930          34          25
1940          34          23
1950          34          23
1960          32          22
1970          32          21
1980          33          20
1990          32          18
2000          31          23
2010          34          20
2020          37          28
2030          34          20
2040          34          20
2050          35          20
2060          36          27
2070          35          30
2080          34          29
2090          33          26
2100          35          27
2110          33          23
2120          34          20
2130          36          22
2140          31          24
2150          37          19
2160          34          17
2170          35          16
2180          36          20
2190          36          19
2200          34          20
2210          38          29
2220          39          25
2230          30          28
2240          35          32
2250          40          22
2260          38          26
2270          36          29
2280          39          27
2290          37          21
2300          36          23
2310          34          24
2320          37          20
2330          35          25
2340          32          25
2350          36          23
2360          32          26
2370          35          22
2380          36          21
2390          34          22
2400          32          23
2410          30          20
2420          36          15
2430          36          18
2440          32          19
2450          34          20
2460          32          21
2470          34          19
2480          35          18
2490          30          21
2500          33          17
2510          31          18
2520          35          21
2530          35          16
2540          34          16
2550          36          17
2560          36          21
2570          35          18
2580          35          23
2590          33          24
2600          30          25
2610          35          23
2620          37          23
2630          38          29
2640          40          26
2650          35          24
2660          34          18
2670          39          23
2680          36          24
2690          34          24
2700          37          22
2710          38          20
2720          37          24
2730          39          23
2740          37          26
2750          43          25
2760          36          24
2770          37          23
2780          34          24
2790          30          27
2800          33          23
2810          34          23
2820          32          16
2830          35          21
2840          36          27
2850          32          29
2860          36          25
2870          34          22
2880          36          24
2890          30          22
2900          35          22
2910          36          19
2920          36          21
2930          41          26
2940          34          23
2950          30          29
2960          34          23
2970          32          23
2980          35          19
2990          37          21
3000          39          27
3010          39          29
3020          40          27
3030          41          28
3040          44          30
3050          42          29
3060          40          26
3070          37          33
3080          36          27
3090          38          29
3100          39          33
3110          38          26
3120          40          30
3130          40          31
3140          38          26
3150          42          24
3160          40          21
3170          35          21
3180          42          22
3190          35          27
3200          36          24
3210          39          20
3220          40          27
3230          36          33
3240          33          32
3250          35          27
3260          42          23
3270          39          26
3280          38          22
3290          39          27
3300          38          29
3310          41          26
3320          34          30
3330          36          28
3340          40          20
3350          39          23
3360          38          22
3370          39          26
3380          39          35
3390          39          26
3400          40          24
3410          38          21
3420          40          26
3430          41          21
3440          38          25
3450          41          24
3460          37          24
3470          41          24
3480          40          23
3490          41          21
3500          40          21
3510          36          26
3520          38          23
3530          40          27
3540          38          23
3550          40          25
3560          42          31
3570          43          29
3580          39          26
3590          41          25
3600          38          30
3610          41          27
3620          39          27
3630          41          20
3640          42          24
3650          41          26
3660          40          23
3670          41          26
3680          42          26
3690          43          29
3700          42          30
3710          43          29
3720          40          30
3730          39          27
3740          39          27
3750          38          27
3760          39          26
3770          38          29
3780          41          28
3790          40          28
3800          40          25
3810          32          38
3820          40          27
3830          40          27
3840          42          23
3850          39          26
3860          42          24
3870          41          27
3880          40          23
3890          39          26
3900          43          26
3910          40          22
3920          40          21
3930          36          21
3940          36          23
3950          39          21
3960          42          23
3970          44          26
3980          43          29
3990          41          26
4000          40          26
4010          41          30
4020          41          22
4030          41          26
4040          43          22
4050          41          25
4060          40          26
4070          39          26
4080          40          27
4090          44          23
4100          43          26
4110          43          25
4120          45          25
4130          38          27
4140          41          34
4150          39          32
4160          41          26
4170          40          32
4180          41          21
4190          45          25
4200          39          25
4210          42          22
4220          43          22
4230          41          28
4240          42          28
4250          39          26
4260          41          25
4270          43          26
4280          45          25
4290          46          28
4300          43          27
4310          42          29
4320          43          25
4330          42          28
4340          44          21
4350          37          24
4360          39          26
4370          40          27
4380          40          25
4390          41          28
4400          42          29
4410          45          28
4420          45          26
4430          41          28
4440          40          23
4450          42          27
4460          42          33
4470          42          22
4480          43          31
4490          44          25
4500          43          24
4510          41          22
4520          39          24
4530          41          22
4540          40          25
4550          40          27
4560          38          29
4570          41          26
4580          42          28
4590          41          24
4600          41          22
4610          43          26
4620          40          25
4630          45          25
4640          41          26
4650          42          23
4660          41          26
4670          41          26
4680          40          26
4690          40          21
4700          40          29
4710          41          22
4720          35          20
4730          38          22
4740          39          22
4750          36          21
4760          39          24
4770          39          20
4780          38          22
4790          36          20
4800          38          20
4810          38          28
4820          40          23
4830          36          26
4840          42          23
4850          35          25
4860          37          24
4870          39          27
4880          37          26
4890          38          22
4900          37          22
4910          41          22
4920          40          22
4930          37          24
4940          41          21
4950          38          26
4960          36          27
4970          40          20
4980          37          24
4990          40          23
5000          43          20
5010          35          27
5020          39          25
5030          41          21
5040          41          21
5050          40          24
5060          37          25
5070          41          22
5080          37          29
5090          42          25
5100          39          26
5110          40          25
5120          40          26
5130          39          22
5140          43          24
5150          42          25
5160          44          20
5170          40          24
5180          40          24
5190          38          21
5200          39          21
5210          42          24
5220          42          23
5230          45          24
5240          42          28
5250          41          23
5260          41          26
5270          42          17
5280          38          26
5290          39          27
5300          43          22
5310          45          27
5320          44          21
5330          43          23
5340          42          21
5350          43          23
5360          43          24
5370          44          24
5380          41          26
5390          40          21
5400          37          24
5410          37          20
5420          45          22
5430          38          20
5440          39          22
5450          41          21
5460          38          20
5470          36          27
5480          36          24
5490          42          20
5500          38          19
5510          35          20
5520          37          21
5530          36          20
5540          40          19
5550          38          19
5560          39          17
5570          40          21
5580          35          24
5590          38          22
5600          40          24
5610          39          25
5620          37          23
5630          32          23
5640          36          26
5650          40          28
5660          41          24
5670          37          25
5680          38          27
5690          34          22
5700          37          25
5710          35          19
5720          36          17
5730          34          24
5740          35          21
5750          32          24
5760          36          24
5770          36          19
5780          36          24
5790          35          20
5800          39          20
5810          42          19
5820          37          21
5830          41          24
5840          41          27
5850          39          22
5860          41          22
5870          39          22
5880          39          21
5890          40          22
5900          37          23
5910          35          23
5920          33          20
5930          41          22
5940          32          26
5950          38          20
5960          38          17
5970          36          24
5980          37          26
5990          40          26
6000          40          23
6010          41          28
6020          40          26
6030          43          18
6040          39          25
6050          38          23
6060          41          20
6070          38          23
6080          42          20
6090          41          23
6100          38          22
6110          38          28
6120          38          21
6130          36          19
6140          38          20
6150          36          25
6160          37          21
6170          37          20
6180          36          21
6190          38          20
6200          38          18
6210          36          20
6220          40          18
6230          38          26
6240          39          20
6250          37          24
6260          39          18
6270          39          21
6280          41          22
6290          40          23
6300          38          23
6310          39          21
6320          39          20
6330          38          19
6340          34          23
6350          37          20
6360          36          24
6370          33          23
6380          37          19
6390          37          24
6400          35          20
6410          38          22
6420          34          22
6430          38          20
6440          35          23
6450          36          18
6460          36          17
6470          35          20
6480          36          19
6490          35          20
6500          33          18
6510          38          20
6520          35          20
6530          38          22
6540          34          21
6550          36          23
6560          35          19
6570          36          19
6580          36          19
6590          35          14
6600          37          21
6610          36          20
6620          36          19
6630          38          19
6640          36          23
6650          36          21
6660          40          22
6670          38          19
6680          38          21
6690          40          28
6700          40          21
6710          38          20
6720          36          26
6730          36          21
6740          39          21
6750          39          17
6760          38          19
6770          37          19
6780          40          19
6790          36          25
6800          39          18
6810          38          24
6820          38          19
6830          38          24
6840          36          20
6850          42          23
6860          34          20
6870          38          24
6880          38          21
6890          41          18
6900          38          21
6910          41          24
6920          36          23
6930          41          23
6940          40          20
6950          41          22
6960          38          24
6970          36          22
6980          41          21
6990          41          20
7000          34          24
7010          34          22
7020          35          23
7030          36          20
7040          31          25
7050          37          27
7060          39          24
7070          36          24
7080          37          24
7090          36          21
7100          34          24
7110          32          22
7120          34          22
7130          33          31
7140          34          21
7150          37          22
7160          36          24
7170          36          24
7180          36          23
7190          32          23
7200          33          17
7210          34          19
7220          33          17
7230          32          25
7240          35          21
7250          34          20
7260          30          20
7270          32          20
7280          33          22
7290          35          22
7300          32          15
7310          34          25
7320          31          20
7330          32          21
7340          33          17
7350          32          19
7360          34          19
7370          32          15
7380          27          21
7390          34          18
7400          35          25
7410          38          22
7420          42          21
7430          39          17
7440          38          19
7450          36          19
7460          36          18
7470          33          19
7480          39          24
7490          40          19
7500          29          25
7510          37          20
7520          33          26
7530          39          21
7540          38          26
7550          39          17
7560          39          16
7570          36          21
7580          37          20
7590          37          18
7600          40          23
7610          41          22
7620          48          25
7630          38          24
7640          40          23
7650          39          24
7660          40          25
7670          33          22
7680          39          27
7690          44          21
7700          40          24
7710          38          22
7720          40          23
7730          35          26
7740          44          21
7750          38          26
7760          39          20
7770          35          23
7780          37          20
7790          39          21
7800          39          16
7810          34          21
7820          36          18
7830          39          18
7840          36          20
7850          37          21
7860          32          24
7870          39          22
7880          39          22
7890          39          20
7900          41          19
7910          40          19
7920          40          22
7930          41          24
7940          44          22
7950          39          22
7960          41          25
7970          43          23
7980          41          25
7990          36          26
8000          39          20
8010          40          22
8020          41          30
8030          42          27
8040          41          23
8050          42          27
8060          42          25
8070          39          27
8080          42          29
8090          42          27
8100          43          22
8110          43          23
8120          41          33
8130          42          24
8140          41          31
8150          40          30
8160          44          26
8170          44          23
8180          39          28
8190          43          22
8200          38          28
8210          38          26
8220          38          28
8230          42          31
8240          35          27
8250          36          28
8260          40          24
8270          43          26
8280          41          26
8290          39          23
8300          40          24
8310          42          26
8320          41          24
8330          42          25
8340          39          30
8350          39          24
8360          40          28
8370          39          27
8380          39          25
8390          36          29
8400          40          27
8410          41          27
8420          38          22
8430          40          25
8440          35          27
8450          37          27
8460          37          31
8470          39          23
8480          37          29
8490          37          26
8500          38          27
8510          35          23
8520          33          26
8530          44          28
8540          45          27
8550          41          29
8560          43          27
8570          38          29
8580          34          28
8590          37          25
8600          39          24
8610          39          29
8620          42          27
8630          36          26
8640          45          27
8650          47          27
8660          41          23
8670          45          25
8680          43          23
8690          41          30
8700          33          26
8710          41          24
8720          43          32
8730          43          24
8740          42          28
8750          43          23
8760          41          27
8770          40          24
8780          37          25
8790          41          29
8800          44          28
8810          41          29
8820          40          25
8830          44          23
8840          43          25
8850          44          24
8860          43          29
8870          43          27
8880          42          29
8890          44          26
8900          43          32
8910          47          29
8920          44          30
8930          43          32
8940          42          39
8950          43          26
8960          43          26
8970          44          31
8980          44          28
8990          36          28
9000          41          28
9010          43          28
9020          43          28
9030          41          27
9040          41          26
9050          43          35
9060          40          33
9070          41          26
9080          41          26
9090          39          27
9100          45          27
9110          35          31
9120          45          29
9130          39          27
9140          42          31
9150          47          28
9160          42          32
9170          42          24
9180          40          21
9190          41          27
9200          40          26
9210          44          27
9220          43          27
9230          43          25
9240          42          31
9250          36          30
9260          41          31
9270          43          32
9280          39          26
9290          43          32
9300          41          31
9310          43          29
9320          45          27
9330          40          29
9340          42          28
9350          41          28
9360          43          24
9370          40          23
9380          40          24
9390          40          27
9400          38          29
9410          39          24
9420          39          28
9430          40          21
9440          42          24
9450          37          25
9460          38          21
9470          40          27
9480          34          21
9490          37          23
9500          34          21
9510          37          23
9520          34          26
9530          42          25
9540          36          21
9550          37          19
9560          35          22
9570          39          23
9580          35          27
9590          39          24
9600          36          20
9610          36          24
9620          36          19
9630          35          20
9640          34          24
9650          36          25
9660          36          28
9670          38          21
9680          39          23
9690          41          20
9700          42          22
9710          40          23
9720          40          22
9730          39          25
9740          37          25
9750          41          24
9760          40          28
9770          41          28
9780          39          28
9790          34          20
9800          36          20
9810          35          22
9820          33          20
9830          37          20
9840          35          19
9850          35          22
9860          35          20
9870          33          23
9880          35          22
9890          35          20
9900          36          16
9910          37          21
9920          40          20
9930          31          23
9940          36          22
9950          37          19
9960          33          21
9970          36          25
9980          39          19
9990          36          20
10000          40          18
