Time   C(t)   
ps   
0           1           1  8.68011e-10   0.0416785
10    0.591755    0.872245   0.0239484   0.0217877
20    0.564246    0.863636   -0.307536  0.00189695
30    0.553816    0.860372    0.319818  0.00119759
40    0.540294     0.85614    0.931108  0.000976577
50    0.534284     0.85426   -0.401298  0.000790241
60    0.524489    0.851194    0.856246  0.00102113
70    0.513862    0.847869    0.967518  0.000636277
80    0.511763    0.847212     1.90986  0.00034686
90    0.506925    0.845698     1.18804  0.000644734
100    0.498869    0.843177    0.374605  0.000651629
110    0.493892    0.841619    0.800394  0.000696902
120    0.484931    0.838815     1.85419  0.000531596
130     0.48326    0.838292     1.39155  0.000366165
140    0.477607    0.836523    0.170962  0.000475112
150    0.473758    0.835319    0.707192  0.000487892
160     0.46785     0.83347    0.115507  0.000471094
170    0.464336     0.83237   -0.199119    0.000437
180     0.45911    0.830735    0.337129  0.00047897
190    0.454757    0.829373     0.83619  0.000456379
200    0.449982    0.827878    0.465965  0.00037186
210    0.447319    0.827045     0.18802  0.000446524
220    0.441051    0.825084   -0.254935  0.000329061
230    0.440738    0.824986    0.150779  0.000232448
240    0.436402    0.823629   -0.366477  0.00038964
250    0.432945    0.822547   -0.181627  0.000354937
260    0.429304    0.821407    0.095613  0.000361584
270    0.425714    0.820284    0.724377  0.000270292
280    0.423898    0.819716   -0.145126  0.000259046
290    0.420533    0.818663    -1.97602  0.000378451
300    0.416329    0.817347    -1.34727  0.00049832
310    0.410566    0.815544   -0.866116  0.000406848
320    0.408192    0.814801   -0.329688  0.00033032
330     0.40396    0.813476   -0.551798  0.000304043
340    0.402111    0.812898   -0.181211  7.74726e-05
350     0.40241    0.812991    0.243403  0.000188564
360     0.39834    0.811718   -0.275136  0.000245637
370    0.397498    0.811454    0.631012  0.000258341
380    0.393173    0.810101  0.00268203  0.000447771
390    0.388542    0.808652     0.18775  0.000292358
400    0.387326    0.808271    0.223907  0.000151831
410    0.385506    0.807701   -0.201882  0.00022141
420    0.382898    0.806885  -0.0538932  0.000255036
430    0.380405    0.806105   -0.220385  0.00030372
440    0.376823    0.804984    0.649118  0.000210667
450    0.376192    0.804787    0.427044  0.000193238
460    0.372958    0.803775   -0.386715  0.000238848
470    0.371415    0.803292   -0.220403  0.000236399
480     0.36823    0.802295   -0.775443  0.000236836
490    0.366678    0.801809   -0.239376  0.000328518
500     0.36166    0.800239    0.297089  0.000322957
510    0.360219    0.799788   -0.905417  1.14292e-06
520    0.361637    0.800232   -0.147619  6.83218e-05
530    0.358852     0.79936    0.518404  0.000342871
540     0.35478    0.798086   -0.055103  0.000364879
550    0.351555    0.797077  0.000749669  0.000292262
560    0.348935    0.796257   -0.591658  0.000470418
570    0.342146    0.794133  0.00103885  0.000296606
580    0.343002      0.7944     0.85146  0.000214846
590     0.33785    0.792788    0.278242  0.000227238
600    0.338458    0.792978    0.129856  0.000117396
610    0.335502    0.792053    0.351135  0.00038204
620    0.330817    0.790587    0.814526  6.56068e-05
630    0.334189    0.791642    0.332307  -3.55601e-05
640    0.331528     0.79081   0.0180066  0.000229332
650    0.329603    0.790207    0.461703  0.000195991
660    0.327608    0.789583     1.36816  0.000162451
670    0.326354     0.78919     1.12805  0.000351603
680    0.320576    0.787382    0.369331  0.000104128
690    0.324271    0.788539    0.627544  3.66181e-05
700    0.319844    0.787153    0.110053  0.000231971
710    0.319632    0.787087    0.368825  0.000148764
720    0.316869    0.786222    0.535119  0.000142698
730    0.316778    0.786194    0.904911  0.000133775
740    0.314193    0.785385    0.664532  0.000449038
750    0.307797    0.783383    0.424768  0.000371699
760    0.306759    0.783058   -0.426249  8.21114e-05
770    0.306155    0.782869    0.905019  5.1026e-05
780    0.305739    0.782739    0.941935  0.000132498
790    0.303505     0.78204    0.498348  7.62627e-05
800    0.304213    0.782262     1.25624  7.98255e-05
810    0.301908    0.781541     0.62731  0.000148898
820    0.301235     0.78133     1.16283  8.94725e-05
830    0.300119    0.780981    0.478706  0.000392173
840    0.293392    0.778875     1.58877  0.000310719
850    0.293905    0.779036    0.737534  2.12565e-05
860    0.292967    0.778742    0.866586  0.00020462
870    0.289812    0.777755    0.237588  0.000543509
880    0.282097    0.775341    0.701268  0.000100881
890    0.287795    0.777124    0.792158  -0.000126386
900    0.284624    0.776132     1.16231  0.000171269
910    0.284369    0.776052    0.644422  0.000241685
920    0.279791    0.774619     1.60646  0.000385155
930    0.276666    0.773641     1.81019  0.000185487
940    0.276081    0.773458     0.29326  -2.76849e-05
950     0.27722    0.773814    0.921211  0.000195725
960    0.272166    0.772233    0.811041  0.000250304
970    0.272214    0.772248    0.570084  6.55681e-05
980    0.270855    0.771823     1.68002  0.000289758
990    0.266419    0.770434      0.8483  0.000267828
1000    0.265498    0.770146     0.60747  -6.51866e-05
1010    0.267722    0.770842     0.92112  -6.51687e-05
1020    0.266802    0.770554    0.551256  0.000146832
1030    0.264786    0.769923     1.66092  7.94813e-05
1040    0.265212    0.770057     1.30914  0.000137784
1050     0.26203    0.769061     1.90121  0.000186317
1060    0.261486    0.768891     1.27185  0.000222495
1070     0.25758    0.767668    0.920958  9.16123e-06
1080    0.261303    0.768833     1.01279  3.22849e-05
1090    0.256934    0.767466     1.06875  0.000171478
1100    0.257873     0.76776     1.45655  0.000133108
1110    0.254272    0.766633     1.62337  0.000370364
1120    0.250466    0.765442      1.4202  0.000140242
1130    0.251467    0.765756     1.47511  -0.000132784
1140    0.253121    0.766273     1.62305  -6.45399e-05
1150    0.252758     0.76616     2.06629  0.000170231
1160    0.249717    0.765208     1.19748  0.000304463
1170    0.246669    0.764254     1.77104  0.000154603
1180    0.246625     0.76424     1.58563  0.000164974
1190    0.243369    0.763221     2.21484  0.000293073
1200    0.240763    0.762406     1.80779  0.000182115
1210    0.239727    0.762082     2.47329  6.43209e-05
1220    0.239477    0.762003     2.17713  0.000107281
1230    0.237582     0.76141     1.77022  0.000229314
1240    0.234891    0.760568     1.54871  0.000144089
1250      0.2347    0.760508     1.56642  0.000137927
1260    0.232132    0.759705     2.26975  9.18627e-05
1270    0.232863    0.759933     1.71459  0.000214705
1280    0.227838    0.758361     1.77012  0.00019163
1290     0.22903    0.758734     2.38034  9.95673e-05
1300    0.225847    0.757738     1.97369  0.000255636
1310    0.223917    0.757134     2.41702  -4.95315e-05
1320    0.226837    0.758048     1.73239   0.0001037
1330    0.221843    0.756485      1.6218  7.34828e-05
1340    0.225368    0.757588     1.78815  -0.000176068
1350    0.225365    0.757587     2.12063  0.000140594
1360    0.222556    0.756708     1.56595  0.000227723
1370     0.22081    0.756162     2.30555  0.000174773
1380     0.21906    0.755614      2.4908  0.000191934
1390    0.216971     0.75496     1.78802  4.13321e-05
1400    0.218234    0.755355     2.74912  8.86917e-05
1410    0.215198    0.754405     2.80463  0.000236637
1420    0.213501    0.753874     2.15734  0.000233857
1430     0.21052    0.752942     3.08265  0.000234342
1440    0.208814    0.752408     2.39767  7.63103e-05
1450    0.208994    0.752464     2.76766  1.2476e-05
1460    0.208565     0.75233     2.63787  0.000357518
1470    0.201844    0.750226     3.43399  0.000283435
1480    0.202896    0.750556     3.74836  -0.000135908
1490    0.204562    0.751077     3.28511  -1.40086e-05
1500    0.203176    0.750643     3.52569  5.04076e-05
1510    0.203554    0.750762     3.52513  0.000190191
1520    0.199372    0.749453     3.48917  0.000190335
1530    0.199747     0.74957     3.15565  2.38471e-05
1540    0.198895    0.749304     2.84089  -3.8743e-08
1550    0.199748    0.749571     2.56326  7.19018e-05
1560    0.197457    0.748854     3.91306  0.000232752
1570    0.195093    0.748114     3.08082  5.16541e-05
1580    0.196424     0.74853     3.54349  2.11135e-05
1590    0.194671    0.747982      4.2274  0.000103491
1600    0.194354    0.747883     3.94994  0.000145118
1610    0.191768    0.747073     4.00544  4.18939e-05
1620    0.193516    0.747621     3.67222  5.2578e-05
1630    0.190717    0.746744      4.5045  0.000290654
1640    0.187703    0.745801     3.85768  0.000343185
1650    0.183853    0.744596     3.72803  0.00016064
1660    0.184491    0.744796     3.87568  -2.58274e-05
1670     0.18437    0.744758     4.59647  0.000150936
1680    0.181472    0.743851      3.9683  1.82912e-06
1690    0.184333    0.744747     2.95034  -2.22087e-05
1700    0.181916     0.74399     4.80004  0.000168954
1710    0.180954    0.743689     4.87389  0.000246104
1720    0.176994     0.74245     3.80147  0.000141832
1730    0.178117    0.742802     4.13378  0.000198401
1740    0.173026    0.741208     3.32046  0.000198429
1750    0.174149     0.74156     5.04006  -9.8367e-05
1760    0.174993    0.741824     4.13348  0.000178412
1770     0.17058    0.740443     4.35589  0.000294377
1780    0.169106    0.739981     3.98659  3.51794e-05
1790    0.169877    0.740223     3.94884  -5.96546e-05
1800    0.170299    0.740355     4.31825  -2.45608e-05
1810    0.170368    0.740377     4.70673  2.47709e-05
1820    0.169803      0.7402      4.5402  -7.41489e-05
1830    0.171851    0.740841     3.98477  0.00013088
1840    0.167186    0.739381     3.35653  0.000201695
1850    0.167817    0.739578     4.68779  1.82658e-05
1860     0.16682    0.739266     4.09578  -6.70925e-05
1870    0.169159    0.739998     4.50242  -6.0007e-05
1880    0.168021    0.739642     4.48392  0.000160355
1890    0.165952    0.738995     4.55816  0.000178497
1900    0.164451    0.738525     3.91068  0.000164631
1910    0.162659    0.737964     3.89234  3.65131e-05
1920     0.16372    0.738296     4.89115  -9.77144e-06
1930    0.162855    0.738025     4.52132  0.000176278
1940    0.160195    0.737193     4.72437  0.00019102
1950    0.159034     0.73683     4.57636  0.000105424
1960    0.158086    0.736533     4.65016  6.25215e-05
1970    0.157784    0.736438     3.78062  -1.64568e-05
1980    0.158416    0.736636     4.05798  -2.72177e-05
1990    0.158328    0.736609     3.94689  0.000318958
2000    0.152036     0.73464     4.18797  0.000279711
2010    0.152734    0.734858      4.6872  -8.44344e-05
2020    0.153725    0.735168      3.8729  4.56363e-05
2030    0.151821    0.734573     4.20547  0.000121766
2040     0.15129    0.734406     4.20601  0.00015486
2050    0.148724    0.733603     4.76054  0.000187821
2060    0.147533    0.733231     4.50166  2.46562e-05
2070    0.148231    0.733449     4.02053  -0.000128261
2080    0.150099    0.734033     4.37151  -4.1008e-05
2090    0.149051    0.733706     3.48375  8.66532e-05
2100    0.148365    0.733491     2.74422  -4.47311e-05
2110    0.149946    0.733986     3.96462  4.67598e-05
2120     0.14743    0.733198     3.94615  0.000248275
2130     0.14498    0.732432     4.63082  0.00029673
2140    0.141496    0.731341     3.76166  7.31111e-05
2150    0.143518    0.731974     4.72271  -2.57798e-05
2160    0.142011    0.731503     4.51928  0.000423571
2170    0.135047    0.729323     4.31661  0.000180792
2180    0.138395    0.730371     3.79818  -0.00016905
2190    0.138428    0.730381     3.59463  0.000203953
2200    0.134316    0.729095     3.39147  1.52759e-05
2210    0.138122    0.730286     3.68664  -5.83693e-05
2220    0.135484     0.72946      3.8532  0.00027155
2230    0.132691    0.728586     4.16768  0.000209019
2240    0.131303    0.728152     4.50069  3.09512e-05
2250    0.132072    0.728392     3.31686  -0.000158878
2260    0.134481    0.729146     4.87062  -0.000106948
2270    0.134211    0.729062     4.25953  0.000169116
2280    0.131099    0.728088     4.01919  0.000277978
2290    0.128651    0.727322     3.89023  0.00014007
2300    0.128297    0.727211     4.09331  -0.000133403
2310     0.13132    0.728157     5.07293  -2.07894e-05
2320    0.128713    0.727341     4.40759  0.000302348
2330    0.125273    0.726264     4.51879  0.000167459
2340    0.125364    0.726293      4.6477  4.37316e-05
2350    0.124398    0.725991     4.42611  -4.31605e-05
2360    0.126227    0.726563     3.92617  -5.82736e-05
2370    0.125563    0.726355     4.40673  0.000339109
2380    0.119445    0.724441     4.66651  0.000316891
2390    0.119226    0.724372     4.88819  -8.57189e-07
2400    0.119462    0.724446     3.88969  -0.000221381
2410    0.123653    0.725758      5.2761  4.10553e-05
2420    0.118641    0.724189      4.9247  8.24727e-05
2430    0.122004    0.725241     5.27578  4.11794e-05
2440    0.117817    0.723931      4.8321  0.000243456
2450    0.117135    0.723718     4.68413  -4.41894e-06
2460    0.117906    0.723959     4.88754  1.09233e-05
2470    0.116916    0.723649     4.35089  0.000218086
2480    0.113544    0.722594      4.4066  0.00012629
2490     0.11439    0.722859     5.20202  -0.000146346
2500    0.116471     0.72351     4.59089  4.60073e-05
2510     0.11347    0.722571     4.66496  0.000412382
2520    0.108223    0.720929     3.98108  0.00025877
2530    0.108295    0.720951     5.12748  0.000155345
2540    0.105116    0.719957     5.23901  0.000248522
2550    0.103324    0.719396     5.23859  -4.55122e-05
2560    0.106027    0.720242     5.27505  -1.4266e-05
2570     0.10361    0.719485     4.57224  4.76267e-05
2580    0.105074    0.719944     4.29484  0.000114262
2590    0.101324     0.71877     5.27531  0.00023897
2600    0.100295    0.718448     4.64658  2.49989e-05
2610    0.100825    0.718614     4.94211  7.21395e-05
2620   0.0988518    0.717996     5.03475  0.000216981
2630   0.0964849    0.717256     5.18274  0.000241037
2640   0.0940311    0.716488     4.70175  8.8663e-05
2650   0.0947116    0.716701     4.75744  -0.000178239
2660   0.0975959    0.717603     3.97994  9.30339e-05
2670    0.092851    0.716118     4.33159  0.000400278
2680   0.0895903    0.715098     4.83083  0.000243542
2690   0.0879801    0.714594     4.83087  -5.61215e-05
2700   0.0907128    0.715449      4.1462  6.67591e-05
2710   0.0866449    0.714176     4.14642  7.04825e-05
2720   0.0893031    0.715008     4.88557  2.35036e-05
2730   0.0861749    0.714029     4.49772  0.00030931
2740   0.0831169    0.713072     4.66456  -5.20263e-05
2750   0.0872154    0.714355     3.61019  -0.000227047
2760   0.0876579    0.714493     4.71911  0.000175183
2770   0.0837117    0.713258     4.18299  0.000275293
2780    0.082152     0.71277     4.34973  5.2093e-05
2790   0.0826699    0.712932     4.18294  -0.00016405
2800    0.085433    0.713797     4.77419  2.02563e-05
2810   0.0822648    0.712806     3.59082  0.000200744
2820   0.0814181    0.712541     4.10835  9.28625e-05
2830   0.0804075    0.712224     3.88658  0.000218029
2840   0.0770576    0.711176     4.51572  4.51393e-06
2850   0.0803172    0.712196     4.14515  -7.57586e-05
2860   0.0785727     0.71165     3.73789  0.000166507
2870   0.0769871    0.711154      4.5704  0.000138547
2880   0.0758018    0.710783     4.57036  6.18543e-05
2890     0.07575    0.710767     3.09076  8.65199e-05
2900   0.0740714    0.710242     3.31231  0.000127423
2910   0.0732015    0.709969     2.53583  -6.37878e-05
2920   0.0753472    0.710641      2.8686  9.13009e-05
2930   0.0713755    0.709398     3.83051  0.00012388
2940   0.0728696    0.709866     3.47873  7.13971e-05
2950   0.0699476    0.708951     3.47873  5.89877e-05
2960   0.0716898    0.709496     3.09064  -6.36734e-05
2970   0.0712211     0.70935     3.33071  0.00018264
2980    0.068037    0.708353     3.27561  0.000327071
2990   0.0646796    0.707303     3.25704  0.000196077
3000   0.0641155    0.707126     3.68182  -0.000154098
3010   0.0677616    0.708267     3.99581  -0.000174954
3020   0.0676145    0.708221     3.70028  9.34627e-05
3030   0.0658923    0.707682     3.44095  0.00025116
3040   0.0625913    0.706649     3.36676  0.000185316
3050    0.062186    0.706522     3.58885  -0.000109157
3060   0.0647745    0.707332     4.23543  -1.35042e-05
3070   0.0624561    0.706607     3.49612  0.000394764
3080   0.0568792    0.704862     2.75643  0.000312186
3090   0.0562124    0.704653     3.21834  9.1796e-05
3100   0.0550433    0.704287     3.56988  3.75222e-05
3110   0.0554619    0.704418      3.1633  -1.25328e-05
3120   0.0552939    0.704365     3.69947  -7.56253e-05
3130   0.0569744    0.704891     4.12446  -8.41297e-05
3140   0.0569765    0.704892     3.77242  0.000244123
3150    0.052092    0.703363       4.032  0.000168488
3160   0.0536068    0.703837     4.12446  -1.22471e-05
3170   0.0523369     0.70344     4.62374  0.000127185
3180   0.0510631    0.703041     3.73547  0.000233494
3190    0.047667    0.701979     4.36468  3.88173e-05
3200   0.0502867    0.702798     3.38423  -3.70746e-05
3210   0.0484085    0.702211     4.16093  -5.88356e-05
3220   0.0514635    0.703167     4.32673  9.49483e-06
3230   0.0482186    0.702151     3.95707  0.000115824
3240    0.049147    0.702442     4.14194  0.00012929
3250   0.0456329    0.701342     4.08634  0.000313462
3260   0.0428777     0.70048     4.25278  0.000254417
3270   0.0405445     0.69975     4.53022  4.90742e-05
3280   0.0418963    0.700173     3.84589  -7.09111e-05
3290   0.0419627    0.700194     4.06771  0.000187173
3300   0.0381528    0.699001     3.29144  4.08078e-05
3310   0.0411466    0.699938     2.88394  2.41894e-05
3320    0.037669     0.69885     3.60509  0.000352556
3330   0.0340955    0.697732     4.17884  0.000136937
3340   0.0349303    0.697993     4.04861  5.53308e-05
3350   0.0329888    0.697385     3.60517  5.08551e-05
3360   0.0339132    0.697675     3.53097  0.000181744
3370   0.0293539    0.696248     2.75437  0.000260417
3380   0.0287048    0.696045     2.99458  0.000200401
3390   0.0253459    0.694994     3.19831  -3.53128e-05
3400   0.0294111    0.696266     3.14221  -7.42634e-05
3410   0.0268312    0.695458     3.67862  9.16435e-05
3420   0.0275782    0.695692     3.41934  4.38361e-05
3430   0.0259545    0.695184     3.21588  0.000294616
3440   0.0216859    0.693848     3.65992  0.000198344
3450   0.0219876    0.693943     3.43777  -0.000158155
3460    0.024849    0.694838     3.32655  -0.000145136
3470   0.0248903    0.694851     4.28789  0.000349851
3480    0.017852    0.692648     3.60407  0.000403544
3490   0.0168195    0.692325     2.92006  -0.000109643
3500   0.0200448    0.693335     3.56628  -2.52084e-05
3510   0.0173236    0.692483     3.86268  0.000383974
3520   0.0123654    0.690931     3.60408  0.000286892
3530   0.0115858    0.690687     4.12174  -8.71867e-05
3540   0.0141091    0.691477     3.97312  1.56946e-05
3550   0.0112719    0.690589     3.43712  0.000203582
3560   0.0100375    0.690203     3.60369  0.000186392
3570  0.00754405    0.689423     3.69573  0.000209286
3580  0.00585174    0.688893     3.30774  -6.45781e-05
3590  0.00883561    0.689827     4.02843  -0.000159098
3600   0.0090337    0.689889     3.54717  0.000160821
3610  0.00561918     0.68882     3.10369  0.000201753
3620  0.00499864    0.688626      3.6399  -0.000137175
3630  0.00836268    0.689679     4.23118  8.50344e-05
3640  0.00329795    0.688094     4.08345  0.000361851
3650  0.00112566    0.687414     3.54726  0.000144746
3660  0.00040303    0.687188     4.15761  4.95978e-05
3670  0.000133708    0.687104     4.54592  0.000109129
3680  -0.00177954    0.686505     4.78623  -5.52928e-05
3690  0.00123956     0.68745     4.08303  5.49023e-05
3700  -0.00287759    0.686161     4.26797  0.00023798
3710  -0.00352004     0.68596     4.69365  7.81489e-05
3720  -0.00444057    0.685672     4.56399  4.15982e-05
3730   -0.004352      0.6857     4.02787  0.00015245
3740  -0.00748958    0.684718      4.3421  0.000143432
3750  -0.00722063    0.684802     4.00897  0.000176516
3760  -0.0110199    0.683613      3.8795  0.000320395
3770  -0.0136285    0.682797     4.13847  0.000270493
3780  -0.0164298     0.68192     4.76763  5.29119e-05
3790  -0.0146868    0.682466     4.69333  -0.000142032
3800  -0.0135891    0.682809     3.97171  1.12948e-05
3810  -0.0149127    0.682395     4.17528  0.000151222
3820  -0.0166136    0.681863     4.41553  0.000207819
3830  -0.0190691    0.681094     4.10132  0.000105376
3840  -0.0187211    0.681203      4.8042  4.49123e-05
3850  -0.0199673    0.680813     4.85928  0.000209429
3860  -0.0229097    0.679893     4.24891  7.34825e-05
3870   -0.021437    0.680353     4.24862  -1.54945e-05
3880  -0.0225998     0.67999     3.61975  0.000248694
3890  -0.0264108    0.678797     3.97136  0.000296587
3900  -0.0285315    0.678133     4.78539  0.000207677
3910  -0.0305644    0.677497     4.10101  0.000194134
3920  -0.0324142    0.676918     4.28585  4.69498e-06
3930  -0.0306583    0.677468     3.65663  7.16349e-05
3940  -0.0338469     0.67647     3.62002  0.000219228
3950  -0.0350428    0.676096     4.54464  -0.000104653
3960  -0.0317538    0.677125     3.91567  -0.000114195
3970  -0.0327589     0.67681     3.41636  -0.000186906
3980  -0.0280157    0.678295     4.78453  -0.000206191
3990  -0.0286351    0.678101     3.73005  0.000461199
4000  -0.0372397    0.675408     3.73034   0.0003271
4010  -0.0351771    0.676054      3.8037  -8.66614e-06
4020  -0.0370664    0.675462     3.48961  0.000189182
4030  -0.0389608     0.67487     3.69291  3.96743e-05
4040  -0.0378599    0.675214     4.26619  0.000146803
4050  -0.0418968    0.673951     4.22958  0.000137137
4060  -0.0406026    0.674356     4.26624  -3.06647e-06
4070  -0.0418355     0.67397     3.98864  7.95869e-05
4080  -0.0421943    0.673858     4.11796  4.08171e-05
4090  -0.0426518    0.673714     3.65609  0.000261074
4100  -0.0474158    0.672224     3.71136  9.50055e-05
4110  -0.0445519     0.67312     3.95158  -0.000218114
4120  -0.0430535    0.673589      3.7848  3.67126e-05
4130  -0.0452862     0.67289     4.30305  8.07773e-05
4140  -0.0446691    0.673083     4.37655  -0.000189982
4150  -0.0414866    0.674079     4.09854  4.18553e-05
4160  -0.0455062    0.672821     4.19192  0.000170031
4170  -0.0448872    0.673015     4.02503  0.000250303
4180  -0.0505123    0.671255     4.22913  2.22087e-05
4190  -0.0453313    0.672876     4.57973  -0.000180735
4200  -0.0468976    0.672386     4.37627  -8.23393e-05
4210  -0.0436846    0.673391     4.26478  -0.000157041
4220  -0.0437567    0.673369     3.80269  8.2225e-05
4230  -0.0453291    0.672877     3.78402  0.000117414
4240   -0.046105    0.672634     4.83843  7.27111e-05
4250  -0.0467833    0.672422     3.65493  4.78074e-05
4260  -0.0470612    0.672335     3.59908  6.31114e-05
4270  -0.0480455    0.672027     4.41298  0.000194439
4280  -0.0509499    0.671118     3.48868  0.000104024
4290   -0.050126    0.671376     3.80261  -3.19701e-05
4300  -0.0503105    0.671318     3.35858  -1.75238e-06
4310  -0.0500909    0.671386     4.04292  5.92737e-05
4320   -0.051496    0.670947     3.76563   0.0001153
4330  -0.0523969    0.670665     3.87652  -1.17615e-05
4340  -0.0512608     0.67102     3.63591  -4.7379e-05
4350  -0.0514494    0.670961     4.28319  0.000121195
4360  -0.0536847    0.670262     3.54348  0.00015225
4370  -0.0544944    0.670008     3.87654  -6.27115e-05
4380  -0.0524305    0.670654     3.65412  -3.18842e-05
4390  -0.0538567    0.670208     3.89453  0.000163517
4400  -0.0557008    0.669631     3.87632  0.000164088
4410  -0.0571384    0.669181     4.33836  -6.80255e-05
4420  -0.0543403    0.670057     4.17172  -0.00020781
4430  -0.0529822    0.670482     3.65361  -0.000167126
4440  -0.0509978    0.671103     3.41304  0.000217114
4450  -0.0573245    0.669123     3.41381  0.00024318
4460  -0.0558614    0.669581     4.63385  0.000276093
4470  -0.0628464    0.667395     4.41279  0.000391259
4480  -0.0636865    0.667132     3.63556  -0.000140956
4490  -0.0600273    0.668277     4.04196  -0.000203972
4500  -0.0596071    0.668409     4.22667  -8.41105e-05
4510  -0.0583451    0.668803     4.02332  -0.000121214
4520  -0.0571828    0.669167     4.28211  0.000221247
4530    -0.06277    0.667419     4.15311  0.000184449
4540  -0.0608718    0.668013     3.33861  -5.77975e-05
4550  -0.0616141     0.66778       3.838  0.000201724
4560  -0.0649063     0.66675     3.33904  8.53106e-05
4570  -0.0633203    0.667247     3.83805  -6.833e-05
4580  -0.0635397    0.667178     3.02438  6.18771e-07
4590  -0.0633326    0.667243     3.65287  2.73321e-05
4600  -0.0640863    0.667007     4.13385  0.000123737
4610  -0.0658074    0.666468     4.48488  0.000199201
4620  -0.0680703     0.66576     4.26328  0.000194477
4630  -0.0696969    0.665251     3.13511  -3.61793e-05
4640  -0.0673468    0.665986     3.78193  -2.51703e-05
4650  -0.0691935    0.665409     3.76375  -9.59482e-05
4660  -0.0654278    0.666587     3.96629  -3.75211e-06
4670  -0.0691185    0.665432     4.39195  0.000169145
4680  -0.0688107    0.665528     3.83697  0.000197382
4690  -0.0730661    0.664197     4.09637  1.25233e-05
4700  -0.0690612     0.66545     4.28088  -0.000150308
4710    -0.07006    0.665137     3.74432  0.000203924
4720  -0.0731396    0.664174     3.22705  0.00019903
4730  -0.0740406    0.663892     3.65224  8.47679e-05
4740   -0.074835    0.663643     3.39293  0.00022799
4750  -0.0786004    0.662465     3.42995  0.000223066
4760  -0.0792963    0.662247     3.24503  -0.000200639
4770  -0.0745876    0.663721     3.46633  -0.000195315
4780    -0.07539    0.663469     3.81785  0.000307424
4790  -0.0807361    0.661796     3.20793  0.000297044
4800  -0.0813309     0.66161     3.54083  9.85198e-05
4810  -0.0827065     0.66118     3.06003  -6.83207e-05
4820  -0.0799645    0.662038     2.94865  7.1311e-05
4830  -0.0841327    0.660734     3.02265  6.53878e-05
4840  -0.0812722    0.661629     2.46752  -0.000208267
4850  -0.0799673    0.662037     3.26256  3.77599e-05
4860  -0.0820274    0.661392     3.11486  4.32648e-05
4870  -0.0808326    0.661766     3.53998  -0.000108452
4880  -0.0798584    0.662071     3.29944  -3.54648e-05
4890  -0.0801233    0.661988     3.04077  7.74156e-05
4900  -0.0814067    0.661587     2.91125  -1.31045e-05
4910  -0.0798612     0.66207     2.52288  0.000305282
4920  -0.0875123    0.659676     2.74485  0.000368165
4930  -0.0872245    0.659766     2.76322  0.000125137
4940  -0.0900151    0.658893     2.61552  0.000182506
4950  -0.0908747    0.658624     2.26434  5.74835e-05
4960  -0.0911648    0.658533     2.57855   3.477e-05
4970  -0.0915701    0.658406     2.26386  3.48747e-05
4980  -0.0918622    0.658315     3.33659  -8.00822e-05
4990  -0.0899684    0.658907     2.70772  -0.000195039
