Time   Number   
ps   
0          46          33
10          52          33
20          45          36
30          45          37
40          50          36
50          47          42
60          45          33
70          49          33
80          46          34
90          51          34
100          52          32
110          53          34
120          52          38
130          45          41
140          53          30
150          51          39
160          50          45
170          57          35
180          49          34
190          50          33
200          53          36
210          48          40
220          51          42
230          50          35
240          52          39
250          54          36
260          51          34
270          53          35
280          52          34
290          49          39
300          52          38
310          52          33
320          52          37
330          52          35
340          49          36
350          49          34
360          46          39
370          49          38
380          52          39
390          50          44
400          52          34
410          50          37
420          51          35
430          52          36
440          51          40
450          52          34
460          56          39
470          58          36
480          49          35
490          56          37
500          51          45
510          53          38
520          54          39
530          56          39
540          55          38
550          55          42
560          57          45
570          54          42
580          52          43
590          52          39
600          57          39
610          50          41
620          55          47
630          57          38
640          56          41
650          59          40
660          53          44
670          58          39
680          54          42
690          55          39
700          55          38
710          53          43
720          51          38
730          54          42
740          56          44
750          51          40
760          55          40
770          56          37
780          58          36
790          57          34
800          55          37
810          51          37
820          57          39
830          54          36
840          54          42
850          57          41
860          54          38
870          53          44
880          54          39
890          52          40
900          55          39
910          53          46
920          52          44
930          55          39
940          56          43
950          47          36
960          55          38
970          48          33
980          47          34
990          46          37
1000          53          36
1010          46          42
1020          49          35
1030          54          39
1040          48          39
1050          49          33
1060          51          33
1070          49          31
1080          50          32
1090          53          43
1100          50          41
1110          54          35
1120          50          34
1130          50          36
1140          52          30
1150          49          43
1160          52          37
1170          50          42
1180          51          41
1190          49          37
1200          54          41
1210          48          34
1220          49          37
1230          51          39
1240          53          42
1250          46          40
1260          47          34
1270          50          37
1280          50          41
1290          52          38
1300          44          32
1310          48          37
1320          52          35
1330          51          39
1340          57          39
1350          52          40
1360          53          39
1370          56          38
1380          55          34
1390          50          44
1400          53          35
1410          50          40
1420          50          44
1430          49          36
1440          52          36
1450          49          37
1460          48          39
1470          49          41
1480          49          37
1490          51          37
1500          51          41
1510          50          39
1520          48          45
1530          49          41
1540          51          40
1550          50          36
1560          54          38
1570          53          44
1580          49          34
1590          44          39
1600          46          43
1610          51          44
1620          49          34
1630          53          43
1640          45          40
1650          53          38
1660          52          37
1670          55          39
1680          52          35
1690          51          34
1700          53          37
1710          58          32
1720          50          39
1730          55          33
1740          51          42
1750          50          40
1760          53          37
1770          53          35
1780          47          36
1790          53          32
1800          47          34
1810          47          41
1820          50          33
1830          49          40
1840          49          37
1850          50          33
1860          51          44
1870          52          44
1880          54          37
1890          48          36
1900          53          38
1910          50          41
1920          50          36
1930          50          33
1940          51          31
1950          45          35
1960          50          36
1970          51          34
1980          54          33
1990          50          34
2000          49          34
2010          52          31
2020          47          28
2030          47          35
2040          48          33
2050          50          27
2060          49          36
2070          48          37
2080          50          34
2090          49          28
2100          50          34
2110          47          38
2120          47          35
2130          53          34
2140          53          32
2150          45          36
2160          50          39
2170          51          35
2180          52          40
2190          53          38
2200          54          34
2210          52          37
2220          53          39
2230          49          35
2240          53          34
2250          53          34
2260          52          41
2270          54          33
2280          52          34
2290          51          33
2300          50          31
2310          49          38
2320          54          39
2330          49          31
2340          50          39
2350          48          35
2360          50          35
2370          53          38
2380          53          35
2390          50          36
2400          51          36
2410          51          33
2420          56          30
2430          50          32
2440          53          38
2450          48          29
2460          57          37
2470          55          35
2480          50          36
2490          50          34
2500          52          41
2510          54          40
2520          55          37
2530          52          36
2540          55          36
2550          55          28
2560          55          35
2570          50          34
2580          52          43
2590          56          38
2600          55          40
2610          51          39
2620          55          43
2630          55          36
2640          54          34
2650          56          35
2660          55          39
2670          53          38
2680          56          38
2690          53          33
2700          55          36
2710          52          41
2720          51          39
2730          55          42
2740          53          35
2750          53          39
2760          58          37
2770          50          39
2780          51          32
2790          54          40
2800          55          39
2810          49          40
2820          53          30
2830          51          37
2840          53          42
2850          51          37
2860          49          36
2870          52          35
2880          50          37
2890          52          33
2900          50          38
2910          54          31
2920          52          37
2930          55          35
2940          54          36
2950          62          35
2960          54          35
2970          53          39
2980          57          45
2990          55          39
3000          60          43
3010          58          44
3020          58          44
3030          61          38
3040          52          39
3050          55          45
3060          60          37
3070          57          35
3080          52          34
3090          56          34
3100          61          33
3110          55          37
3120          59          32
3130          52          39
3140          60          40
3150          58          36
3160          54          39
3170          60          38
3180          54          32
3190          59          37
3200          54          43
3210          56          46
3220          56          38
3230          54          42
3240          54          40
3250          56          38
3260          59          38
3270          61          38
3280          56          36
3290          58          41
3300          53          40
3310          60          40
3320          58          45
3330          57          42
3340          55          44
3350          57          43
3360          62          41
3370          59          40
3380          59          39
3390          52          41
3400          61          36
3410          57          46
3420          60          41
3430          55          41
3440          60          43
3450          61          38
3460          58          36
3470          58          42
3480          61          42
3490          64          42
3500          62          39
3510          64          43
3520          64          40
3530          61          40
3540          58          45
3550          57          48
3560          54          44
3570          57          36
3580          59          41
3590          52          45
3600          55          48
3610          60          40
3620          53          47
3630          53          41
3640          55          39
3650          59          35
3660          56          51
3670          56          37
3680          62          41
3690          60          41
3700          54          49
3710          60          40
3720          58          38
3730          58          37
3740          60          37
3750          55          40
3760          55          42
3770          57          42
3780          52          44
3790          57          41
3800          55          34
3810          57          32
3820          56          32
3830          60          38
3840          57          43
3850          59          42
3860          59          41
3870          59          36
3880          54          46
3890          58          40
3900          59          41
3910          56          38
3920          58          39
3930          53          48
3940          53          39
3950          53          47
3960          59          36
3970          57          40
3980          54          40
3990          55          33
4000          53          48
4010          55          38
4020          56          44
4030          58          39
4040          55          43
4050          56          38
4060          56          41
4070          61          42
4080          57          39
4090          58          43
4100          57          41
4110          53          44
4120          51          38
4130          56          39
4140          55          36
4150          60          39
4160          55          35
4170          55          44
4180          54          43
4190          55          41
4200          57          41
4210          58          43
4220          54          39
4230          57          39
4240          56          42
4250          59          39
4260          56          44
4270          54          42
4280          55          39
4290          57          37
4300          53          43
4310          57          37
4320          56          31
4330          56          46
4340          59          41
4350          55          43
4360          57          39
4370          54          40
4380          60          38
4390          63          41
4400          58          42
4410          58          38
4420          55          40
4430          58          36
4440          59          44
4450          59          42
4460          62          32
4470          56          43
4480          58          39
4490          54          41
4500          53          41
4510          56          31
4520          61          38
4530          59          38
4540          54          40
4550          60          38
4560          55          41
4570          57          39
4580          60          42
4590          55          41
4600          62          41
4610          59          36
4620          56          40
4630          58          40
4640          56          39
4650          58          39
4660          57          34
4670          61          34
4680          59          34
4690          61          42
4700          55          36
4710          57          35
4720          57          39
4730          57          36
4740          58          39
4750          56          42
4760          62          36
4770          52          38
4780          53          36
4790          53          35
4800          54          41
4810          57          40
4820          57          39
4830          54          37
4840          58          40
4850          56          40
4860          55          44
4870          59          39
4880          57          38
4890          56          39
4900          59          33
4910          55          41
4920          56          36
4930          56          40
4940          57          40
4950          55          36
4960          52          37
4970          52          34
4980          48          47
4990          55          39
5000          57          45
5010          55          31
5020          56          36
5030          57          43
5040          55          41
5050          54          47
5060          54          43
5070          57          43
5080          57          39
5090          53          39
5100          53          45
5110          53          44
5120          54          42
5130          54          39
5140          55          38
5150          55          42
5160          56          44
5170          54          42
5180          55          44
5190          53          46
5200          60          37
5210          57          41
5220          56          42
5230          57          39
5240          53          48
5250          49          37
5260          52          40
5270          52          36
5280          52          43
5290          54          38
5300          50          39
5310          58          39
5320          53          37
5330          57          39
5340          54          36
5350          53          40
5360          60          40
5370          53          40
5380          55          39
5390          51          42
5400          52          34
5410          52          34
5420          53          44
5430          53          32
5440          59          38
5450          56          34
5460          59          40
5470          59          37
5480          52          41
5490          49          31
5500          50          33
5510          53          35
5520          48          36
5530          52          37
5540          58          32
5550          53          37
5560          56          33
5570          53          42
5580          60          39
5590          54          37
5600          57          39
5610          55          38
5620          52          42
5630          53          41
5640          52          36
5650          53          37
5660          49          38
5670          54          39
5680          55          40
5690          53          33
5700          56          38
5710          56          42
5720          59          39
5730          56          45
5740          56          41
5750          59          38
5760          51          45
5770          58          40
5780          53          41
5790          52          38
5800          57          31
5810          51          35
5820          52          38
5830          51          37
5840          52          38
5850          49          32
5860          56          40
5870          53          32
5880          55          35
5890          57          39
5900          60          40
5910          54          38
5920          59          37
5930          56          40
5940          58          43
5950          59          45
5960          55          42
5970          60          39
5980          56          42
5990          55          42
6000          62          43
6010          61          39
6020          59          45
6030          58          41
6040          52          38
6050          60          37
6060          58          48
6070          62          40
6080          57          43
6090          58          43
6100          57          43
6110          59          44
6120          60          41
6130          62          43
6140          56          42
6150          65          42
6160          64          45
6170          60          41
6180          61          42
6190          56          46
6200          60          45
6210          58          49
6220          67          41
6230          67          44
6240          63          40
6250          61          42
6260          61          43
6270          56          40
6280          64          44
6290          61          40
6300          63          41
6310          59          44
6320          57          46
6330          62          40
6340          57          45
6350          63          40
6360          60          43
6370          54          45
6380          63          47
6390          58          38
6400          61          43
6410          58          49
6420          60          44
6430          61          40
6440          60          42
6450          60          40
6460          53          36
6470          57          39
6480          56          41
6490          61          36
6500          56          46
6510          57          49
6520          57          45
6530          58          46
6540          56          41
6550          58          33
6560          58          40
6570          55          45
6580          58          39
6590          62          42
6600          62          40
6610          60          38
6620          61          38
6630          54          44
6640          57          40
6650          57          43
6660          59          45
6670          55          42
6680          60          40
6690          58          35
6700          60          43
6710          57          40
6720          58          39
6730          59          37
6740          60          40
6750          53          37
6760          59          37
6770          56          44
6780          57          40
6790          57          35
6800          53          42
6810          59          43
6820          57          45
6830          61          37
6840          59          39
6850          57          41
6860          56          44
6870          53          39
6880          57          40
6890          57          40
6900          56          37
6910          59          42
6920          60          41
6930          60          44
6940          58          47
6950          55          45
6960          55          48
6970          54          40
6980          57          41
6990          53          42
7000          53          45
7010          51          37
7020          52          42
7030          58          43
7040          56          36
7050          52          46
7060          55          45
7070          54          41
7080          56          43
7090          55          48
7100          55          39
7110          58          35
7120          57          40
7130          55          37
7140          54          39
7150          53          47
7160          51          38
7170          55          38
7180          52          44
7190          51          42
7200          55          41
7210          53          45
7220          55          37
7230          57          42
7240          55          38
7250          54          43
7260          52          46
7270          58          37
7280          51          46
7290          48          51
7300          56          42
7310          56          43
7320          53          41
7330          53          46
7340          54          44
7350          57          45
7360          48          43
7370          53          40
7380          61          39
7390          50          46
7400          55          37
7410          55          39
7420          56          37
7430          52          41
7440          55          46
7450          58          41
7460          59          41
7470          54          41
7480          59          37
7490          54          47
7500          56          40
7510          52          45
7520          59          45
7530          63          39
7540          55          46
7550          58          39
7560          56          38
7570          55          41
7580          56          39
7590          56          35
7600          56          34
7610          59          37
7620          59          39
7630          59          37
7640          55          40
7650          62          34
7660          59          43
7670          62          41
7680          54          45
7690          60          38
7700          57          40
7710          61          38
7720          63          35
7730          60          38
7740          59          40
7750          55          43
7760          56          36
7770          58          40
7780          55          39
7790          55          43
7800          59          41
7810          53          45
7820          54          39
7830          54          37
7840          57          35
7850          57          42
7860          55          36
7870          54          40
7880          57          43
7890          56          36
7900          59          41
7910          54          41
7920          52          38
7930          58          34
7940          51          38
7950          59          42
7960          53          48
7970          54          38
7980          55          41
7990          56          41
8000          56          45
8010          53          43
8020          59          35
8030          60          35
8040          55          43
8050          52          41
8060          56          39
8070          53          45
8080          56          46
8090          54          42
8100          50          48
8110          60          44
8120          60          47
8130          58          39
8140          60          41
8150          50          50
8160          58          44
8170          55          51
8180          54          38
8190          55          42
8200          56          38
8210          50          43
8220          54          39
8230          54          45
8240          57          41
8250          57          44
8260          56          41
8270          61          48
8280          61          37
8290          62          44
8300          58          46
8310          54          38
8320          58          46
8330          61          45
8340          61          44
8350          55          47
8360          61          43
8370          59          41
8380          62          42
8390          56          44
8400          60          42
8410          57          43
8420          60          50
8430          62          46
8440          56          40
8450          55          41
8460          55          40
8470          56          41
8480          60          35
8490          57          42
8500          49          43
8510          54          43
8520          56          42
8530          51          35
8540          60          38
8550          57          40
8560          56          42
8570          61          32
8580          60          47
8590          53          45
8600          56          38
8610          51          41
8620          57          42
8630          58          44
8640          57          41
8650          59          37
8660          61          40
8670          53          42
8680          58          43
8690          62          36
8700          62          38
8710          59          36
8720          62          39
8730          60          37
8740          58          46
8750          61          45
8760          57          38
8770          64          44
8780          61          43
8790          62          39
8800          61          37
8810          66          38
8820          59          40
8830          60          39
8840          62          43
8850          55          45
8860          53          44
8870          63          42
8880          57          49
8890          55          39
8900          61          43
8910          60          43
8920          57          42
8930          64          39
8940          57          44
8950          60          47
8960          58          51
8970          63          44
8980          57          43
8990          62          45
9000          60          44
9010          62          39
9020          57          44
9030          56          44
9040          61          46
9050          59          47
9060          62          44
9070          60          41
9080          58          46
9090          64          39
9100          57          42
9110          56          42
9120          57          42
9130          61          44
9140          60          45
9150          54          50
9160          64          46
9170          59          46
9180          60          46
9190          55          44
9200          54          42
9210          62          40
9220          59          43
9230          58          47
9240          54          41
9250          62          41
9260          54          49
9270          53          39
9280          59          44
9290          58          38
9300          59          36
9310          52          45
9320          63          45
9330          55          44
9340          55          45
9350          58          46
9360          63          44
9370          57          51
9380          59          51
9390          58          45
9400          62          47
9410          59          44
9420          60          36
9430          57          46
9440          57          44
9450          59          46
9460          57          44
9470          58          37
9480          55          40
9490          58          46
9500          57          44
9510          59          43
9520          63          45
9530          58          44
9540          58          42
9550          61          46
9560          60          37
9570          59          51
9580          59          44
9590          55          43
9600          59          45
9610          63          44
9620          54          33
9630          55          43
9640          59          43
9650          57          41
9660          57          44
9670          55          39
9680          54          48
9690          59          42
9700          56          42
9710          58          39
9720          56          45
9730          59          41
9740          54          42
9750          57          38
9760          55          48
9770          56          46
9780          64          40
9790          64          45
9800          61          51
9810          59          49
9820          60          44
9830          64          51
9840          64          44
9850          58          44
9860          58          48
9870          58          41
9880          58          46
9890          57          44
9900          58          44
9910          57          42
9920          55          40
9930          57          42
9940          59          46
9950          59          40
9960          57          43
9970          57          48
9980          63          44
9990          59          46
10000          59          48
