Time   C(t)   
ps   
0           1           1  8.09108e-10   0.0259834
10    0.742808    0.924005    0.271863   0.0139484
20    0.721031     0.91757   -0.512698  0.00191347
30    0.704539    0.912697   -0.262686  0.00129156
40      0.6952    0.909937    0.177451  0.000844011
50    0.687658    0.907709  -0.00145291  0.000790361
60    0.679393    0.905267   -0.441822  0.000795686
70    0.671745    0.903007  -0.0370708  0.000837132
80     0.66265     0.90032   -0.846085  0.000840649
90    0.654932    0.898039   -0.738778  0.000711346
100    0.648424    0.896116    -1.10761  0.000539875
110    0.644134    0.894848   -0.608411  0.000487247
120    0.638679    0.893236    -1.01288  0.000494218
130     0.63425    0.891928    -1.10817  0.000501257
140    0.628653    0.890274    -1.54853  0.000699979
150     0.62025    0.887791    -1.22667  0.000605252
160    0.616548    0.886697    -1.22725  0.00043267
170    0.611597    0.885234    -1.29893  0.000497645
180    0.606596    0.883756    -1.52464  0.000546643
190    0.600664    0.882004    -1.27476  0.000401253
200     0.59857    0.881385    -2.17957  0.000207379
210    0.596516    0.880778    -1.26324  0.000382674
220    0.590917    0.879124     -1.3108  0.000393406
230    0.588648    0.878453   -0.882459  0.000344035
240    0.584036    0.877091    -1.16819  0.000364852
250    0.581351    0.876297   -0.977696  0.000333241
260    0.577371    0.875121   -0.691997  0.000424823
270    0.572855    0.873787    -1.34609  0.000334686
280    0.570678    0.873143    -1.70362  0.000297016
290    0.566914    0.872031    -1.60828  0.00034233
300    0.563831     0.87112    -1.93022  0.000279945
310    0.561316    0.870377    -1.53756  0.00023573
320    0.559117    0.869727    -1.63303  0.000305557
330    0.555204    0.868571    -1.63253  0.000355047
340    0.552016    0.867629    -1.90637  0.000317013
350    0.548864    0.866698     -1.6562  0.000180873
360    0.548398     0.86656    -1.06166  0.000255036
370    0.543763    0.865191    -2.03725  0.000412902
380     0.54014     0.86412    -1.66823  0.000247824
390    0.538807    0.863726    -1.14492  0.000150019
400     0.53714    0.863234   -0.990057  0.000326878
410    0.532269    0.861794     -1.3586  0.000358218
420    0.529975    0.861117    -1.64488  0.000241864
430    0.527432    0.860365    -1.38266  0.000172499
440    0.526525    0.860097    -1.06182  0.000243074
450    0.522571    0.858929    -1.56198  0.000335976
460    0.519806    0.858112    -1.72827  0.000231314
470    0.517944    0.857562    -1.88323  2.35021e-05
480    0.519336    0.857973    -2.00285  0.000156161
490    0.514821    0.856639    -1.75258  0.000315359
500    0.513029    0.856109    -2.00272  0.000245795
510    0.509905    0.855186    -2.32392  0.000246221
520    0.508104    0.854654    -2.37152  0.000178263
530     0.50634    0.854133    -2.40753  0.000261843
540    0.502867    0.853107    -2.50267  0.000226885
550    0.501802    0.852792    -2.13383  0.000225392
560     0.49836    0.851775    -1.74077  0.000196576
570    0.497871     0.85163    -1.89584  0.000140861
580    0.495542    0.850942    -2.19329  0.000218312
590    0.493504     0.85034    -2.52664  0.000233361
600    0.490875    0.849563    -1.91951  0.000319807
610    0.487108     0.84845    -2.34783  0.000318396
620    0.484507    0.847682    -1.64599  0.000283338
630    0.481442    0.846776    -1.46765  0.000325941
640    0.477988    0.845755    -1.88384  0.000284617
650    0.475749    0.845094    -2.18136  0.000217858
660    0.473631    0.844468    -1.34842  0.000370198
670    0.468345    0.842906    -1.96662  0.000239906
680    0.468833     0.84305    -2.18137  2.94313e-05
690    0.467757    0.842732     -2.9553  0.000177485
700    0.465283    0.842001    -2.08658  0.000254066
710    0.462675    0.841231    -1.94347  0.000290689
720     0.45947    0.840283    -2.66967   0.0001829
730    0.459017     0.84015    -2.51534  0.000121829
740    0.457033    0.839563     -2.2417  0.000211383
750     0.45479    0.838901    -2.47961  0.000284185
760    0.451349    0.837884    -2.55077  0.00025076
770    0.449774    0.837419    -2.38413  0.000136182
780    0.448626    0.837079    -2.95565  0.000202557
790    0.445723    0.836222    -3.02671  0.000222287
800     0.44418    0.835766    -3.16974  0.000160852
810    0.442506    0.835271    -2.97971  0.000216718
820    0.439846    0.834485    -2.80083  0.000197797
830     0.43855    0.834102    -2.65817  0.000138371
840    0.437078    0.833667    -3.03923  0.000248338
850    0.433584    0.832635    -3.12227  0.000244313
860    0.432192    0.832223    -2.99177  0.000188871
870    0.429806    0.831518    -3.36071  0.000284164
880    0.426509    0.830544    -2.74174  0.000427255
890    0.421261    0.828994    -3.14613  0.000250931
900     0.42149    0.829061    -2.69422  5.70774e-05
910     0.42012    0.828656    -2.62269  0.000271516
920     0.41606    0.827457    -2.94397  0.000234954
930     0.41542    0.827268    -2.67055  0.000190161
940    0.412256    0.826333    -3.37241  0.00028612
950    0.409698    0.825577    -3.21771  0.000247572
960    0.407305     0.82487    -2.99122  0.000191595
970    0.405866    0.824445    -3.07498  0.000152723
980    0.404251    0.823967    -2.98001  5.04702e-05
990    0.404857    0.824146    -3.01608  0.000133771
1000    0.401575    0.823177    -2.67073  0.000319797
1010    0.398461    0.822257    -3.27789  0.00017821
1020    0.398011    0.822124    -2.96839  0.000163405
1030    0.395193    0.821291    -2.95636  0.000253563
1040     0.39294    0.820625    -3.30148  0.000117975
1050    0.392833    0.820594    -3.19502  0.000118339
1060    0.390573    0.819926    -2.55201  0.000296843
1070    0.386896    0.818839    -2.99208  0.000273201
1080    0.385109    0.818311     -3.1828  0.00015475
1090    0.383801    0.817925    -2.25454  0.000144078
1100    0.382227     0.81746     -2.6717  0.000170878
1110    0.380384    0.816915    -2.76688  0.00015354
1120    0.379157    0.816552    -2.75489  0.000173883
1130    0.376906    0.815888    -3.20717  0.000243133
1140    0.374294    0.815116    -2.81424  0.000179188
1150    0.373322    0.814829    -3.11213  0.000161791
1160    0.371058     0.81416    -3.15988  0.000164291
1170    0.370037    0.813858    -3.32637  0.00026961
1180    0.365666    0.812566    -3.34982  0.000267814
1190     0.36468    0.812275    -3.38582  0.000123282
1200      0.3632    0.811838    -3.46924  0.000192976
1210    0.360821    0.811135    -3.29027  0.000170928
1220    0.359782    0.810828    -3.18359  0.000124291
1230    0.358335      0.8104    -3.06434  0.000124551
1240    0.357291    0.810091    -3.32638  0.000176527
1250    0.354804    0.809357    -2.95761  0.000246604
1260    0.352359    0.808634    -3.14759  0.000105257
1270    0.352699    0.808735    -2.81497  8.77291e-05
1280    0.350604    0.808116    -2.51731  0.000166732
1290    0.349365     0.80775    -2.26732  0.000230455
1300    0.345995    0.806754    -2.21948  0.000221872
1310    0.344927    0.806438    -2.50503  5.47767e-05
1320    0.344899     0.80643    -2.17212  0.000159228
1330    0.341743    0.805497    -1.92189  0.000204867
1340    0.340802    0.805219    -2.24365   7.139e-05
1350    0.340315    0.805075    -2.24371  0.000187682
1360    0.337048     0.80411    -2.29118  0.00031779
1370    0.333959    0.803197    -2.06481  0.000163424
1380     0.33378    0.803145    -2.20793  0.00016405
1390    0.330678    0.802228    -2.41033  0.000148174
1400    0.330816    0.802269    -1.87493  0.000196747
1410    0.326743    0.801065     -2.1367  0.000224504
1420    0.326326    0.800942    -2.12485  0.000122072
1430    0.324302    0.800344     -1.9106  0.000278465
1440    0.320757    0.799296     -1.4939  0.000145511
1450    0.321391    0.799484     -1.8631  8.62658e-05
1460    0.319032    0.798787    -2.08923  0.000130099
1470    0.318789    0.798715     -2.0303  0.000153601
1480     0.31596    0.797879    -1.67291  0.000308804
1490    0.312613     0.79689    -1.50619  0.000170584
1500    0.312548    0.796871    -1.20904  0.000106166
1510     0.31049    0.796263    -1.37573  0.000175941
1520    0.309029    0.795831    -1.98265  0.000171815
1530    0.307054    0.795247    -2.25645  0.000181438
1540      0.3054    0.794759    -2.14933  0.000191231
1550    0.303229    0.794117    -2.17319  7.05019e-05
1560     0.30399    0.794342    -1.94738  0.000126792
1570    0.300693    0.793368    -2.19702  0.000248297
1580    0.299024    0.792875    -2.55432  0.000101657
1590     0.29866    0.792767    -2.31623  0.00016761
1600    0.295672    0.791884    -2.35202  0.00025458
1610    0.293568    0.791263    -1.56642  0.000262247
1620    0.290427    0.790335    -1.79243  7.9529e-05
1630    0.291978    0.790793    -2.22145  3.29509e-05
1640    0.289768     0.79014    -1.93593  0.000185835
1650    0.288261    0.789695    -1.69778  0.000231142
1660    0.285145    0.788774    -2.36392  0.000274149
1670    0.282778    0.788074    -2.81606  0.000111803
1680    0.282909    0.788113    -2.38814  5.07027e-05
1690    0.281764    0.787775    -2.44745  0.00025679
1700    0.277774    0.786596    -2.03017  0.000171885
1710    0.278326    0.786759    -2.11408  3.47674e-05
1720    0.277078     0.78639     -2.1975  0.000279677
1730    0.272733    0.785106    -1.76913  0.000270678
1740    0.271665    0.784791    -2.59026  0.000204685
1750    0.268639    0.783897    -2.70898  0.000298294
1760    0.265699    0.783028    -2.36375  0.000186682
1770    0.264906    0.782793    -2.37571  0.00014894
1780     0.26272    0.782148    -2.09019  0.000235559
1790    0.260194    0.781401    -1.69737  0.000178483
1800     0.25915    0.781093    -1.97134  0.00023904
1810    0.255414    0.779989    -1.80431  0.000189023
1820     0.25537    0.779976    -2.16153  4.51654e-05
1830     0.25451    0.779722    -1.98353  1.14769e-05
1840     0.25514    0.779908    -2.34094  0.000161275
1850    0.251285    0.778769    -2.00737  0.000347454
1860    0.248191    0.777855     -2.4354   0.0001524
1870    0.248237    0.777868    -2.65007  0.000203819
1880    0.244115     0.77665    -2.23329  0.000276831
1890      0.2427    0.776232    -1.72153  0.000204807
1900    0.240019     0.77544    -1.75732  0.000278132
1910    0.237138    0.774589    -2.56681  0.000159652
1920    0.236826    0.774496    -2.59065  5.54025e-05
1930    0.236029    0.774261    -2.41247  7.98307e-05
1940    0.235229    0.774025    -3.04322  0.000163142
1950    0.232767    0.773297    -2.84084  0.000271052
1960    0.229808    0.772423    -2.17417  0.000200722
1970    0.228752    0.772111    -2.66215  8.84347e-05
1980    0.228039      0.7719     -2.3649  9.35681e-05
1990    0.226881    0.771558     -2.6385  0.000172521
2000    0.224589    0.770881    -2.00773  0.000232029
2010     0.22224    0.770187    -2.09088  0.000207883
2020    0.220431    0.769652     -2.1746  0.000176264
2030    0.218715    0.769145    -2.29327  0.000171897
2040    0.216993    0.768636    -2.06722  0.000162476
2050    0.215465    0.768185    -2.40053  8.35627e-05
2060    0.215322    0.768142    -2.88846  0.000150816
2070    0.212449    0.767294    -2.74558  0.000223062
2080    0.210861    0.766824    -2.65042  0.000178936
2090     0.20887    0.766236    -2.34087   0.0001594
2100    0.207673    0.765882    -2.34114  0.000277114
2110    0.203328    0.764598    -2.28108  0.000225241
2120    0.203168    0.764551    -2.50747  1.85177e-05
2130    0.202958    0.764489    -2.43636  0.000123665
2140    0.200695     0.76382    -2.18655  0.000289187
2150    0.197174     0.76278    -2.81701  0.000242226
2160     0.19585    0.762389     -2.3412  0.000165149
2170    0.193871    0.761804     -2.6864  0.000246049
2180    0.190929    0.760935    -2.80549  0.000183637
2190    0.190198    0.760719    -2.13864  0.000219502
2200    0.186539    0.759638    -2.53132  0.000144139
2210    0.187316    0.759867    -2.71046  0.000124522
2220    0.184049    0.758902    -2.55538  0.000228479
2230    0.182746    0.758517    -2.31748  6.44498e-05
2240     0.18276    0.758521     -2.7817  7.48083e-05
2250     0.18125    0.758075    -2.78149  0.000138451
2260    0.179991    0.757703    -2.25814  0.000215136
2270    0.176947    0.756803    -2.37698  0.00023339
2280    0.175323    0.756323    -2.28178  4.78879e-05
2290    0.175989     0.75652    -2.47241  -3.61279e-05
2300    0.176045    0.756537    -2.61525  2.25224e-05
2310    0.175539    0.756387    -2.55624  0.000130171
2320    0.173442    0.755768    -3.18683  0.000161134
2330    0.172316    0.755435    -3.03224  4.34607e-05
2340    0.172573    0.755511    -3.40126  4.11913e-05
2350    0.171492    0.755192    -3.32999  0.00010561
2360    0.170461    0.754887    -3.27058  0.000263023
2370    0.166232    0.753637    -3.07979  0.000178301
2380    0.166895    0.753833    -2.77081  3.19026e-05
2390    0.165594    0.753449    -3.58045  0.000148224
2400     0.16393    0.752957    -3.33036  9.93677e-05
2410    0.163607    0.752861    -3.54471  -1.44333e-05
2420    0.164219    0.753042    -3.18818  0.000151865
2430    0.160569    0.751964     -3.3782  0.000248197
2440    0.159255    0.751576    -3.24733  7.97398e-05
2450    0.158974    0.751493    -3.33091  2.5285e-05
2460    0.158749    0.751426    -2.96255  0.000166269
2470    0.155649     0.75051    -3.08106  0.000315653
2480    0.152436    0.749561    -3.06881  0.000172501
2490    0.152199    0.749491    -3.14076  0.000201932
2500    0.148397    0.748367    -3.23549  0.000212725
2510    0.147945    0.748234    -3.24783  6.11618e-05
2520    0.147174    0.748006    -2.95055  0.000103311
2530    0.145878    0.747623    -3.43845  0.000214338
2540    0.142887    0.746739    -3.10503  0.00021216
2550    0.141635    0.746369    -3.62864  0.000173086
2560    0.139426    0.745717    -3.43833  0.000160328
2570    0.138429    0.745422     -3.0218  0.000110513
2580    0.137215    0.745063    -3.18861  0.000118712
2590    0.136054     0.74472    -3.22446  0.000177474
2600    0.133666    0.744015     -3.2005  6.61544e-05
2610    0.134731    0.744329     -2.5581  3.72887e-05
2620     0.13292    0.743794    -3.35537  0.000141194
2630    0.131907    0.743495    -2.98673  0.00016299
2640     0.12966    0.742831    -3.03443  0.000216921
2650    0.127569    0.742213    -3.27263  0.000107689
2660    0.127507    0.742195      -3.463  0.000118833
2670    0.125192    0.741511    -3.46303  0.00017003
2680    0.124106     0.74119    -3.27273  0.000210929
2690    0.120974    0.740264    -3.11793  0.000246391
2700    0.119178    0.739734    -3.22496  0.000168911
2710    0.117595    0.739266     -2.6062  0.000147771
2720    0.116223     0.73886    -2.74937  0.00023212
2730    0.112953    0.737894    -3.05849  0.000235317
2740    0.111516     0.73747    -2.79675  0.000122152
2750     0.11051    0.737172    -2.73747  0.000157847
2760    0.108359    0.736537    -2.86828  0.00020985
2770    0.106313    0.735932    -2.79669  0.000175043
2780    0.104859    0.735503    -2.95206  0.000170111
2790    0.102911    0.734927    -2.72566  0.000156908
2800     0.10172    0.734575    -3.08285  0.000132763
2810    0.100256    0.734142     -2.9639  0.000146802
2820   0.0987844    0.733708    -2.89262  0.000111592
2830   0.0980237    0.733483    -3.05943  0.000109211
2840   0.0966002    0.733062    -2.55973  8.46922e-05
2850   0.0963299    0.732983    -2.52409  0.000101476
2860   0.0945707    0.732463    -3.08325  0.000154104
2870   0.0932478    0.732072    -2.52409  0.000176707
2880   0.0910365    0.731418    -2.77389  0.000124563
2890   0.0907565    0.731336    -2.79798  0.000119519
2900   0.0886461    0.730712     -3.2738  0.000197424
2910   0.0868081    0.730169    -3.32124  0.000131189
2920   0.0860224    0.729937    -3.27401  4.82112e-05
2930   0.0858438    0.729884    -3.11934  0.000143252
2940   0.0831573     0.72909    -3.42869  9.59788e-05
2950   0.0839243    0.729317    -3.22678  0.000132793
2960   0.0805015    0.728306    -3.32182  0.000214036
2970   0.0796435    0.728052    -2.85761  0.000139248
2980   0.0777165    0.727483    -2.75039  0.000147861
2990   0.0766863    0.727178    -3.00035  0.000182093
3000   0.0740746    0.726407    -3.10743  0.000131925
3010   0.0740478    0.726399    -2.88157  5.06621e-05
3020   0.0730614    0.726107    -2.98892  0.000104481
3030   0.0719582    0.725781    -2.59609  0.000124492
3040   0.0705716    0.725371    -2.63167  8.79705e-05
3050   0.0701988    0.725261    -2.53666  4.30778e-05
3060     0.06971    0.725117    -2.52492  0.000153862
3070   0.0671215    0.724352    -2.06055  0.000310367
3080   0.0635027    0.723283     -2.7507  0.000137614
3090   0.0643693    0.723539    -2.76273  4.43079e-05
3100   0.0626165    0.723021    -2.63209  0.000104239
3110   0.0622845    0.722923    -2.82238  0.000133166
3120   0.0599532    0.722234    -2.27478  8.47025e-05
3130   0.0605904    0.722422    -1.89423  2.21994e-05
3140   0.0595092    0.722103     -2.5489  7.72588e-06
3150   0.0604359    0.722377    -2.38264  2.50336e-05
3160   0.0590085    0.721955    -2.37073  0.000166127
3170   0.0571134    0.721395    -2.60831  0.000123433
3180   0.0565399    0.721225    -2.40626  4.86549e-05
3190   0.0561403    0.721107    -2.26377  9.79355e-05
3200   0.0545812    0.720647    -2.18052  0.000164937
3210   0.0528415    0.720133    -2.44222  0.00011606
3220     0.05226    0.719961    -2.41857  6.70923e-05
3230   0.0514997    0.719736     -2.5494  1.19822e-05
3240   0.0520203     0.71989    -2.95439  2.36619e-05
3250   0.0510264    0.719596      -2.895  0.000140428
3260   0.0492118     0.71906    -2.56187  0.000248903
3270   0.0460484    0.718125    -2.72828  0.000243678
3280   0.0443382     0.71762    -2.51395  7.16109e-05
3290   0.0446162    0.717702    -2.54998  8.37039e-05
3300   0.0426641    0.717125    -2.66876  8.96748e-05
3310   0.0428227    0.717172    -2.34785   0.0001372
3320   0.0399201    0.716314     -2.4427  0.000219966
3330   0.0384233    0.715872    -2.34756  1.99098e-05
3340   0.0395219    0.716197    -2.34787  0.000138491
3350   0.0356535    0.715054      -2.407  0.000203627
3360   0.0354494    0.714993    -2.08585  0.000100719
3370   0.0336391    0.714459    -2.37139  0.000127699
3380   0.0328954    0.714239    -1.99088  3.88213e-05
3390   0.0328627    0.714229    -2.41955  0.000152269
3400     0.02985    0.713339    -2.40738  0.000209194
3410   0.0286788    0.712993    -2.32414  9.04314e-05
3420   0.0280414    0.712805    -1.97899  3.08936e-05
3430    0.028061     0.71281    -1.70562  9.69368e-05
3440   0.0261027    0.712232    -2.02697  0.000322309
3450   0.0216148    0.710906    -2.05063  0.00013368
3460    0.023429    0.711442     -1.8603  -2.20582e-05
3470   0.0220559    0.711036    -1.71778  5.30222e-05
3480   0.0223686    0.711128     -2.1822  0.000152955
3490   0.0189968    0.710132     -2.2412  0.000228842
3500   0.0177918    0.709776    -2.37238  0.000150907
3510   0.0159787     0.70924    -2.41998  0.000172552
3520   0.0143407    0.708756    -2.58667  -3.049e-05
3530   0.0165885     0.70942    -2.23022  1.23151e-05
3540   0.0140944    0.708683    -2.11103  0.000130927
3550     0.01397    0.708647    -2.12321  0.000186471
3560    0.010365    0.707582    -2.31361  0.000348856
3570  0.00699285    0.706585     -2.1467  0.000245837
3580  0.00544827    0.706129    -2.17073  0.000163908
3590  0.00371469    0.705616    -2.20668  0.000235035
3600  0.000747577     0.70474    -2.52774  0.000241853
3610  -0.00112237    0.704187    -2.42076  0.000205715
3620  -0.00336672    0.703524    -1.89688  9.82077e-05
3630  -0.00308653    0.703607    -1.96857  1.83768e-05
3640  -0.00373425    0.703415    -2.18284  0.000105137
3650  -0.00518926    0.702986    -2.26621  8.67499e-05
3660  -0.00546925    0.702903    -2.51641  0.000136847
3670  -0.00792621    0.702177    -2.40916  0.000186844
3680  -0.00920613    0.701799    -2.24261  3.60073e-06
3690  -0.00799822    0.702156    -2.43337  -1.48265e-05
3700  -0.0089096    0.701886     -2.3976  2.24112e-05
3710  -0.00844645    0.702023    -2.02899  0.000144755
3720  -0.0118047    0.701031     -2.2785  0.000220228
3730   -0.012851    0.700722    -2.18343  1.67932e-05
3740  -0.0121406    0.700932    -1.62446  1.70353e-05
3750  -0.0131917    0.700621    -1.79096  3.90935e-05
3760  -0.0129224    0.700701      -2.029  1.71967e-05
3770  -0.0135357    0.700519    -1.29113  6.77479e-05
3780  -0.0142774      0.7003    -1.30313  2.67785e-05
3790  -0.0140712    0.700361    -1.58902  5.54429e-05
3800  -0.0153862    0.699973    -1.68416  0.00024621
3810  -0.0189954    0.698906    -1.39828  0.000148204
3820  -0.0183503    0.699097    -1.55316  4.37431e-05
3830  -0.0198703    0.698648    -1.68426  7.56452e-05
3840  -0.0198632     0.69865    -1.62489  6.64872e-05
3850     -0.0212    0.698255    -1.32742  7.61798e-05
3860  -0.0213868    0.698199    -1.07762  0.000114971
3870  -0.0234994    0.697575    -1.42263  4.45702e-05
3880  -0.0222782    0.697936    -1.58955  3.85286e-05
3890    -0.02427    0.697348    -1.92277  1.57948e-05
3900  -0.0225941    0.697843    -1.69685  -2.25726e-05
3910  -0.0238186    0.697481    -1.60165  0.000103251
3920  -0.0246591    0.697233    -1.48265  0.000187862
3930  -0.0275758    0.696371    -1.62521  0.00012663
3940  -0.0271917    0.696484    -1.57798  4.93106e-05
3950   -0.028562    0.696079    -1.22054  0.000169839
3960  -0.0305885    0.695481     -1.5541  0.000170353
3970  -0.0319691    0.695073    -1.35196  7.9478e-05
3980  -0.0321781    0.695011    -1.64965  -2.007e-06
3990  -0.0319289    0.695084    -1.69737  8.65178e-05
4000  -0.0339084      0.6945    -1.62572  0.000172027
4010  -0.0353695    0.694068    -1.56632  6.41473e-05
4020  -0.0351914     0.69412    -1.94749  1.50686e-05
4030  -0.0356709    0.693979    -1.66193  -2.46201e-05
4040   -0.034699    0.694266    -1.55503  4.48829e-05
4050  -0.0365685    0.693714    -1.67388  0.000140872
4060  -0.0375164    0.693433    -1.88816  0.000164604
4070  -0.0398606    0.692741     -1.4358  0.000148396
4080  -0.0404843    0.692557    -1.62626  6.91701e-05
4090   -0.041244    0.692332    -1.41224  -4.71925e-05
4100  -0.0395405    0.692835    -1.43636  -2.38132e-05
4110  -0.0407677    0.692473    -1.78136  0.000159783
4120  -0.0427361    0.691891    -2.18601  0.000160277
4130  -0.0439733    0.691526    -1.76962  6.35924e-05
4140   -0.044008    0.691515    -1.24621  0.000174852
4150  -0.0474703    0.690492    -2.03139  0.000124573
4160  -0.0464994    0.690779    -1.85317  5.46057e-05
4170  -0.0485624     0.69017    -1.54354  0.000132309
4180  -0.0491456    0.689997    -1.80533  1.09334e-05
4190  -0.0487811    0.690105    -1.97224  4.49534e-05
4200  -0.0500447    0.689732     -1.7342  0.000112913
4210  -0.0510394    0.689438    -1.69846  4.1867e-05
4220   -0.050882    0.689484     -1.6987  0.000147891
4230  -0.0539972    0.688564    -1.78171  6.61341e-05
4240  -0.0522047    0.689093    -1.57996  -8.37745e-05
4250  -0.0523217    0.689059    -1.60381  3.57047e-05
4260  -0.0529188    0.688882    -1.37781  0.000166288
4270  -0.0556475    0.688076    -1.85362  0.000139127
4280  -0.0557013     0.68806     -1.8181  8.47025e-05
4290  -0.0573415    0.687576    -1.40153  9.86515e-05
4300  -0.0576744    0.687477    -2.05626  -8.00826e-06
4310  -0.0571813    0.687623    -1.56854  0.000154831
4320   -0.060771    0.686562    -1.71099  0.000102898
4330  -0.0592393    0.687015    -1.71135  -3.52405e-05
4340  -0.0600662     0.68677    -1.56843  9.32455e-05
4350  -0.0611042    0.686464    -1.68745  5.16707e-05
4360  -0.0610996    0.686465    -1.87818  -6.32999e-05
4370  -0.0598382    0.686838    -1.74748  5.91142e-05
4380  -0.0622819    0.686116    -1.39031  0.000171089
4390    -0.06326    0.685827    -1.80701  0.000189405
4400    -0.06607    0.684996    -1.91408  4.21997e-05
4410   -0.064104    0.685577    -1.91444  7.09452e-05
4420  -0.0674889    0.684577    -2.42614  0.000190767
4430  -0.0679193     0.68445    -2.06907  1.13368e-05
4440  -0.0677156     0.68451    -2.41447  7.16917e-05
4450  -0.0693532    0.684026    -2.18849  0.000103695
4460  -0.0697895    0.683897     -2.2123  0.000125541
4470   -0.071864    0.683284    -2.39079  0.000218453
4480  -0.0741586    0.682606    -2.36698  9.78343e-05
4490  -0.0738207    0.682706    -2.52172  3.40909e-05
4500  -0.0748404    0.682405    -2.30753  0.000234773
4510  -0.0785161    0.681319    -2.39062  0.00018876
4520  -0.0786156    0.681289    -2.23623  4.58512e-05
4530  -0.0794332    0.681048    -2.31953  8.19691e-05
4540   -0.080255    0.680805    -2.26004  4.26032e-05
4550  -0.0802852    0.680796     -2.6053  -5.44637e-07
4560  -0.0802441    0.680808    -2.74826  0.000126217
4570  -0.0828096     0.68005    -2.46239  0.000228045
4580   -0.084805    0.679461    -2.85513  5.45047e-05
4590  -0.0838996    0.679728    -2.62938  3.33041e-07
4600  -0.0848116    0.679459    -2.70085  7.67347e-05
4610  -0.0854343    0.679275    -2.58196  0.00017941
4620  -0.0883998    0.678398    -2.78418  0.000143282
4630     -0.0883    0.678428    -2.80815  9.27411e-05
4640  -0.0902547     0.67785    -2.84373  5.97395e-05
4650  -0.0894948    0.678075    -2.66554  -2.8231e-05
4660    -0.08969    0.678017    -2.80821  7.49696e-05
4670  -0.0909942    0.677632    -2.62993  0.000211978
4680  -0.0939296    0.676764    -2.64167  0.00020521
4690  -0.0950984    0.676419    -2.51077  -4.99662e-05
4700  -0.0929303     0.67706    -2.59425  -8.93623e-06
4710  -0.0949196    0.676472    -2.11831  0.000124855
4720  -0.0954274    0.676322    -2.45146  6.57003e-05
4730  -0.0962337    0.676084    -2.58233  0.000148103
4740  -0.0983894    0.675447    -2.66564  1.00054e-05
4750  -0.0964338    0.676024    -2.27325  -2.71313e-05
4760  -0.0978468    0.675607    -2.01152  0.000183011
4770   -0.100094    0.674943    -2.08281  -4.73037e-06
4780  -0.0977522    0.675635      -2.333  -3.44843e-05
4790  -0.0994043    0.675147    -2.07117  0.000241066
4800   -0.102574     0.67421    -2.40427  6.74859e-05
4810   -0.100754    0.674748    -2.42842  3.81283e-06
4820    -0.10265    0.674188    -2.51158  0.000140327
4830   -0.103561    0.673919    -2.20237  1.89412e-05
4840   -0.103029    0.674076    -2.58328  9.94481e-05
4850    -0.10555    0.673331     -2.4524  0.000187499
4860   -0.106779    0.672968    -2.14289  0.000234369
4870   -0.110237    0.671946    -2.48792  0.000212049
4880    -0.11102    0.671715    -2.24996  5.30519e-06
4890   -0.110343    0.671915    -2.26188  -5.62597e-05
4900   -0.109894    0.672047    -2.09554  -6.80909e-05
4910   -0.108981    0.672317    -2.36918  5.55739e-05
4920   -0.111006    0.671719    -2.22646  0.000148608
4930   -0.111953    0.671439    -2.42862  5.53727e-06
4940   -0.111117    0.671686      -2.298  9.64217e-06
4950   -0.112146    0.671382    -2.34574  4.84332e-05
4960   -0.112085      0.6714    -1.97656  4.08486e-05
4970   -0.112963     0.67114    -2.13158  8.41174e-05
4980   -0.113768    0.670903     -1.7983  5.70565e-05
4990   -0.114104    0.670803    -2.25065  2.99957e-05
