Time   Number   
ps   
0          79          63
10          80          50
20          84          49
30          78          49
40          79          55
50          80          55
60          82          53
70          77          52
80          76          51
90          72          58
100          78          59
110          76          53
120          77          58
130          75          54
140          79          55
150          79          50
160          79          59
170          80          55
180          77          60
190          79          58
200          79          56
210          79          64
220          79          59
230          80          56
240          83          53
250          80          59
260          84          61
270          84          57
280          87          52
290          84          52
300          83          60
310          83          53
320          79          66
330          82          63
340          80          59
350          81          58
360          78          57
370          83          61
380          89          51
390          85          59
400          88          52
410          86          62
420          87          54
430          80          45
440          84          52
450          85          47
460          80          59
470          83          53
480          82          54
490          87          58
500          83          64
510          83          52
520          83          53
530          83          47
540          83          61
550          87          56
560          87          67
570          84          60
580          86          61
590          86          59
600          80          60
610          86          55
620          85          55
630          86          56
640          87          58
650          89          58
660          85          53
670          90          57
680          84          62
690          84          56
700          85          49
710          83          69
720          86          54
730          87          58
740          84          50
750          84          53
760          86          53
770          86          51
780          83          55
790          86          53
800          87          55
810          86          53
820          84          55
830          84          57
840          83          62
850          88          57
860          82          56
870          83          59
880          86          57
890          85          61
900          88          58
910          83          59
920          83          57
930          83          61
940          85          57
950          81          54
960          82          53
970          81          58
980          82          61
990          81          58
1000          81          64
1010          86          55
1020          82          64
1030          79          57
1040          82          54
1050          80          54
1060          79          54
1070          82          52
1080          81          57
1090          80          50
1100          84          49
1110          85          49
1120          86          46
1130          84          53
1140          84          45
1150          82          51
1160          86          54
1170          85          47
1180          86          56
1190          84          57
1200          83          56
1210          83          49
1220          83          60
1230          81          58
1240          82          51
1250          84          58
1260          83          56
1270          83          53
1280          87          54
1290          86          60
1300          83          55
1310          86          55
1320          78          47
1330          82          53
1340          79          66
1350          79          56
1360          77          62
1370          79          54
1380          80          55
1390          82          55
1400          78          55
1410          82          61
1420          80          52
1430          83          49
1440          82          57
1450          81          53
1460          78          58
1470          79          59
1480          79          60
1490          74          60
1500          80          57
1510          86          49
1520          85          55
1530          81          53
1540          82          58
1550          82          58
1560          79          56
1570          83          53
1580          82          54
1590          81          50
1600          85          52
1610          81          56
1620          84          58
1630          89          50
1640          85          54
1650          84          60
1660          86          63
1670          87          59
1680          81          51
1690          83          56
1700          81          52
1710          86          57
1720          86          53
1730          83          56
1740          85          54
1750          81          56
1760          86          53
1770          85          48
1780          82          52
1790          85          48
1800          84          48
1810          78          59
1820          84          52
1830          81          50
1840          82          54
1850          88          47
1860          82          57
1870          86          46
1880          81          57
1890          83          55
1900          84          50
1910          82          49
1920          83          53
1930          81          51
1940          83          49
1950          80          57
1960          84          49
1970          79          56
1980          82          51
1990          84          53
2000          85          52
2010          86          50
2020          82          50
2030          84          53
2040          82          53
2050          83          62
2060          87          50
2070          86          54
2080          85          56
2090          81          58
2100          86          60
2110          81          59
2120          84          53
2130          84          59
2140          79          58
2150          85          59
2160          85          56
2170          80          61
2180          82          61
2190          84          61
2200          83          57
2210          82          60
2220          81          58
2230          85          48
2240          84          61
2250          86          60
2260          78          59
2270          84          61
2280          81          56
2290          83          57
2300          81          60
2310          84          60
2320          83          59
2330          81          59
2340          80          58
2350          83          56
2360          83          66
2370          80          61
2380          85          56
2390          84          59
2400          86          59
2410          84          65
2420          85          59
2430          83          58
2440          83          59
2450          79          65
2460          84          65
2470          86          69
2480          87          54
2490          85          58
2500          89          59
2510          88          62
2520          84          65
2530          84          60
2540          85          60
2550          86          59
2560          85          57
2570          84          61
2580          81          60
2590          84          57
2600          83          59
2610          86          63
2620          84          57
2630          89          56
2640          86          63
2650          82          56
2660          85          61
2670          86          63
2680          87          53
2690          88          51
2700          84          62
2710          86          65
2720          85          59
2730          81          70
2740          85          58
2750          88          58
2760          84          55
2770          89          56
2780          83          59
2790          83          57
2800          83          68
2810          84          59
2820          82          63
2830          84          60
2840          83          63
2850          81          55
2860          85          56
2870          88          59
2880          87          59
2890          85          56
2900          85          58
2910          84          60
2920          87          60
2930          80          67
2940          85          63
2950          86          67
2960          88          62
2970          89          54
2980          86          62
2990          83          67
3000          87          64
3010          86          63
3020          86          56
3030          89          61
3040          86          65
3050          81          64
3060          86          69
3070          90          59
3080          84          64
3090          85          66
3100          87          62
3110          89          56
3120          86          63
3130          84          56
3140          83          73
3150          92          62
3160          89          57
3170          88          60
3180          89          64
3190          91          69
3200          88          66
3210          89          58
3220          85          64
3230          85          65
3240          85          68
3250          89          61
3260          93          60
3270          83          65
3280          80          60
3290          86          61
3300          85          57
3310          88          63
3320          85          59
3330          89          55
3340          89          61
3350          86          59
3360          82          61
3370          84          57
3380          85          65
3390          88          50
3400          89          59
3410          89          51
3420          88          55
3430          90          55
3440          87          61
3450          87          53
3460          85          57
3470          87          58
3480          91          58
3490          88          59
3500          89          67
3510          81          65
3520          84          68
3530          89          66
3540          87          65
3550          88          58
3560          89          61
3570          89          65
3580          86          58
3590          87          60
3600          85          58
3610          82          53
3620          84          58
3630          80          58
3640          86          64
3650          85          55
3660          84          67
3670          84          55
3680          84          68
3690          84          60
3700          89          59
3710          83          59
3720          81          58
3730          85          55
3740          83          63
3750          84          56
3760          81          61
3770          85          66
3780          81          65
3790          78          62
3800          86          57
3810          88          60
3820          88          59
3830          85          68
3840          86          60
3850          81          71
3860          85          59
3870          92          61
3880          85          65
3890          88          58
3900          88          60
3910          88          63
3920          87          59
3930          84          61
3940          84          61
3950          89          58
3960          88          67
3970          88          57
3980          87          67
3990          88          60
4000          88          63
4010          86          64
4020          85          68
4030          89          60
4040          86          62
4050          86          62
4060          86          64
4070          89          61
4080          88          61
4090          89          57
4100          87          59
4110          82          64
4120          86          62
4130          83          63
4140          86          62
4150          88          55
4160          83          59
4170          86          63
4180          88          59
4190          85          58
4200          87          57
4210          86          59
4220          91          67
4230          89          58
4240          89          63
4250          89          56
4260          87          64
4270          88          62
4280          90          59
4290          87          62
4300          84          61
4310          82          61
4320          90          61
4330          87          62
4340          84          62
4350          88          62
4360          84          79
4370          89          58
4380          88          57
4390          88          72
4400          91          62
4410          88          65
4420          87          67
4430          93          57
4440          90          59
4450          85          61
4460          82          64
4470          84          64
4480          90          52
4490          87          58
4500          83          62
4510          86          60
4520          87          60
4530          87          61
4540          90          57
4550          87          58
4560          88          55
4570          89          54
4580          89          58
4590          87          62
4600          90          64
4610          88          65
4620          89          70
4630          90          63
4640          89          60
4650          87          64
4660          82          64
4670          85          60
4680          87          58
4690          84          62
4700          84          62
4710          83          69
4720          85          63
4730          86          60
4740          87          59
4750          90          65
4760          91          59
4770          82          66
4780          87          67
4790          85          63
4800          84          71
4810          87          66
4820          85          67
4830          87          66
4840          87          71
4850          86          72
4860          89          59
4870          79          66
4880          80          73
4890          85          64
4900          86          68
4910          85          69
4920          82          69
4930          81          70
4940          82          67
4950          84          63
4960          84          57
4970          82          63
4980          84          65
4990          89          59
5000          87          64
5010          83          71
5020          80          69
5030          86          54
5040          84          78
5050          92          59
5060          88          65
5070          85          68
5080          87          63
5090          89          70
5100          87          73
5110          91          66
5120          89          62
5130          86          75
5140          89          58
5150          89          65
5160          87          64
5170          89          69
5180          85          81
5190          89          66
5200          82          75
5210          88          72
5220          88          66
5230          93          69
5240          90          61
5250          91          68
5260          84          73
5270          84          66
5280          88          74
5290          91          62
5300          87          68
5310          93          68
5320          89          69
5330          90          63
5340          87          72
5350          84          63
5360          89          64
5370          87          63
5380          88          63
5390          87          69
5400          86          67
5410          87          71
5420          85          72
5430          80          76
5440          89          75
5450          85          81
5460          84          79
5470          88          70
5480          87          74
5490          83          85
5500          89          80
5510          85          74
5520          84          78
5530          93          73
5540          91          82
5550          88          68
5560          90          76
5570          83          74
5580          82          75
5590          86          75
5600          89          66
5610          82          72
5620          86          66
5630          84          69
5640          87          62
5650          84          69
5660          80          78
5670          81          65
5680          87          72
5690          82          62
5700          87          67
5710          84          68
5720          81          72
5730          77          72
5740          83          69
5750          85          70
5760          84          63
5770          82          71
5780          81          55
5790          84          59
5800          81          66
5810          83          67
5820          81          69
5830          81          58
5840          82          66
5850          86          70
5860          89          68
5870          86          63
5880          90          59
5890          87          60
5900          83          60
5910          84          63
5920          82          64
5930          85          54
5940          87          68
5950          89          59
5960          90          55
5970          87          61
5980          90          61
5990          88          60
6000          85          59
6010          90          69
6020          89          70
6030          90          56
6040          92          58
6050          89          64
6060          92          66
6070          93          69
6080          90          60
6090          89          61
6100          88          56
6110          90          65
6120          91          68
6130          85          66
6140          85          73
6150          89          65
6160          87          60
6170          87          57
6180          89          66
6190          87          60
6200          90          55
6210          88          69
6220          91          58
6230          92          54
6240          89          61
6250          92          52
6260          91          60
6270          90          64
6280          88          67
6290          94          51
6300          96          60
6310          90          66
6320          91          68
6330          91          62
6340          90          69
6350          92          57
6360          90          69
6370          92          64
6380          92          62
6390          88          66
6400          90          69
6410          90          61
6420          87          62
6430          88          71
6440          91          60
6450          87          66
6460          95          59
6470          94          62
6480          89          68
6490          98          56
6500          94          60
6510          89          55
6520          90          56
6530          97          62
6540          94          55
6550          95          63
6560          92          64
6570          90          67
6580          91          66
6590          93          60
6600          94          59
6610          86          60
6620          93          55
6630          93          58
6640          91          64
6650          94          59
6660          93          58
6670          90          58
6680          92          60
6690          93          60
6700          94          71
6710          92          65
6720          94          66
6730          95          72
6740          94          68
6750          92          58
6760          91          63
6770          92          58
6780          89          59
6790          91          56
6800          89          58
6810          88          57
6820          94          69
6830          90          71
6840          90          70
6850          91          66
6860          90          65
6870          91          62
6880          94          58
6890          89          63
6900          92          67
6910          93          69
6920          95          61
6930          92          64
6940          93          55
6950          92          60
6960          95          55
6970          92          55
6980          92          60
6990          94          64
7000          94          58
7010          88          63
7020          91          65
7030          90          73
7040          93          64
7050          90          68
7060          91          74
7070          96          58
7080          90          70
7090          88          77
7100          89          69
7110          90          65
7120          88          62
7130          89          72
7140          88          64
7150          87          70
7160          84          69
7170          90          71
7180          84          80
7190          87          64
7200          87          79
7210          89          70
7220          91          62
7230          94          66
7240          89          69
7250          91          74
7260          89          76
7270          86          72
7280          84          68
7290          88          72
7300          88          72
7310          88          75
7320          85          69
7330          88          70
7340          91          59
7350          88          71
7360          93          67
7370          88          75
7380          92          75
7390          90          69
7400          83          76
7410          88          59
7420          91          63
7430          89          66
7440          86          72
7450          88          60
7460          87          62
7470          93          65
7480          91          64
7490          91          63
7500          93          63
7510          91          63
7520          90          73
7530          91          64
7540          91          65
7550          90          63
7560          86          69
7570          94          65
7580          87          64
7590          90          52
7600          86          66
7610          89          59
7620          90          63
7630          89          59
7640          88          60
7650          87          68
7660          89          67
7670          88          69
7680          90          57
7690          87          62
7700          88          56
7710          87          58
7720          89          55
7730          87          74
7740          92          61
7750          94          63
7760          89          64
7770          92          67
7780          87          64
7790          94          58
7800          89          63
7810          91          61
7820          92          53
7830          90          59
7840          92          61
7850          92          65
7860          91          66
7870          88          53
7880          89          60
7890          93          63
7900          93          64
7910          92          56
7920          94          60
7930          90          52
7940          89          61
7950          90          56
7960          87          63
7970          87          64
7980          91          74
7990          83          60
8000          87          56
8010          88          69
8020          83          62
8030          88          60
8040          88          58
8050          86          52
8060          87          55
8070          87          63
8080          88          62
8090          88          62
8100          86          55
8110          89          58
8120          89          56
8130          86          51
8140          88          56
8150          82          55
8160          84          69
8170          84          55
8180          87          63
8190          85          65
8200          88          49
8210          85          57
8220          86          62
8230          87          59
8240          87          59
8250          88          53
8260          88          51
8270          86          64
8280          87          60
8290          85          57
8300          87          60
8310          88          59
8320          87          69
8330          88          56
8340          90          58
8350          85          57
8360          88          63
8370          88          50
8380          83          58
8390          88          59
8400          87          59
8410          92          61
8420          92          58
8430          91          66
8440          87          66
8450          86          62
8460          84          63
8470          86          64
8480          86          54
8490          84          54
8500          86          60
8510          89          53
8520          87          61
8530          91          60
8540          83          63
8550          87          62
8560          84          65
8570          89          53
8580          87          60
8590          87          59
8600          84          65
8610          81          68
8620          87          62
8630          92          67
8640          90          64
8650          88          63
8660          88          63
8670          88          62
8680          88          55
8690          88          64
8700          91          68
8710          86          60
8720          89          52
8730          85          71
8740          87          58
8750          90          69
8760          92          59
8770          84          62
8780          83          60
8790          85          60
8800          87          65
8810          87          65
8820          84          62
8830          89          68
8840          83          68
8850          84          58
8860          87          58
8870          86          55
8880          83          64
8890          87          51
8900          87          55
8910          87          72
8920          90          67
8930          90          60
8940          88          61
8950          85          66
8960          90          61
8970          86          69
8980          88          61
8990          87          57
9000          87          72
9010          87          62
9020          82          55
9030          87          55
9040          87          65
9050          83          63
9060          87          56
9070          85          57
9080          88          62
9090          87          64
9100          89          61
9110          87          71
9120          86          70
9130          89          61
9140          89          70
9150          85          57
9160          87          65
9170          86          68
9180          83          59
9190          87          56
9200          80          62
9210          85          71
9220          84          78
9230          88          64
9240          87          70
9250          88          60
9260          87          57
9270          87          56
9280          86          75
9290          91          65
9300          85          69
9310          89          64
9320          85          68
9330          87          60
9340          87          69
9350          90          65
9360          92          62
9370          88          64
9380          88          60
9390          90          53
9400          89          57
9410          88          55
9420          80          63
9430          89          61
9440          81          73
9450          84          66
9460          85          60
9470          87          60
9480          86          56
9490          88          53
9500          86          64
9510          87          56
9520          83          66
9530          81          58
9540          84          65
9550          83          61
9560          86          68
9570          82          64
9580          84          63
9590          87          55
9600          85          56
9610          88          61
9620          83          56
9630          89          53
9640          82          60
9650          82          57
9660          80          55
9670          83          59
9680          80          59
9690          81          57
9700          82          61
9710          83          57
9720          83          55
9730          83          50
9740          84          55
9750          83          56
9760          83          63
9770          83          54
9780          82          59
9790          85          57
9800          80          65
9810          86          62
9820          84          54
9830          79          67
9840          83          69
9850          82          51
9860          78          61
9870          79          63
9880          77          60
9890          82          64
9900          82          68
9910          84          59
9920          79          64
9930          82          58
9940          82          59
9950          78          57
9960          82          66
9970          84          61
9980          82          68
9990          82          65
10000          81          62
