Time   C(t)   
ps   
0           1           1  1.75195e-09   0.0296995
10    0.710018    0.730217   -0.420389   0.0168177
20    0.663646    0.687074    0.977578  0.00393592
30      0.6313    0.656981     2.19362   0.0031307
40    0.601032    0.628822     1.24351  0.00276315
50    0.576037    0.605568    0.248225  0.00242574
60    0.552517    0.583686     1.42231  0.00213952
70    0.533246    0.565758     1.14879  0.00164006
80    0.519716     0.55317     1.95853  0.00158629
90    0.501521    0.536242     1.23517   0.0016945
100    0.485826     0.52164     0.23998  0.00146324
110    0.472256    0.509016    -1.83771  0.00126483
120    0.460529    0.498106     1.72706  0.00127468
130    0.446762    0.485298     2.22318  0.00123871
140    0.435755    0.475057     2.89986   0.0012125
150    0.422512    0.462737     2.04112  0.00123409
160    0.411073    0.452095     3.98298   0.0010029
170    0.402454    0.444076     2.85085  0.000937512
180    0.392323     0.43465     1.08991  0.00105768
190    0.381301    0.424396     2.57915  0.00100904
200    0.372142    0.415875     3.66306  0.000885366
210    0.363593    0.407922     4.24847  0.000613409
220    0.359874    0.404462     4.42656  0.000622112
230    0.351151    0.396347     5.05763  0.000839247
240    0.343089    0.388846     4.33485  0.000724371
250    0.336664    0.382868     4.46944  0.000657769
260    0.329934    0.376607     6.36494  0.000724891
270    0.322166     0.36938     4.65001  0.000658058
280    0.316772    0.364362     4.24225  0.000610708
290    0.309952    0.358017      5.0088  0.000609495
300    0.304583    0.353022     3.74428  0.000593716
310    0.298078     0.34697     5.18874  0.000582618
320     0.29293    0.342181     4.32956  0.000549567
330    0.287086    0.336744     3.83397  0.00054329
340    0.282064    0.332072     5.09734  0.000510113
350    0.276884    0.327252     5.09663  0.000452198
360     0.27302    0.323658     4.14617  0.000396568
370    0.268953    0.319873     4.23665  0.000436775
380    0.264285    0.315531     2.38518  0.000511649
390     0.25872    0.310353     3.42303  0.000438625
400    0.255512    0.307369     1.79743   0.0004965
410     0.24879    0.301115     1.84261  0.000529517
420    0.244922    0.297517       1.978  0.000392088
430    0.240948    0.293819     2.24754  0.000395371
440    0.237015     0.29016     2.69919  0.00038876
450    0.233173    0.286586     2.33692  0.000464112
460    0.227732    0.281524     1.88641  0.000400361
470    0.225165    0.279136     4.05234  0.000331628
480      0.2211    0.275354     3.46552  0.000289907
490    0.219367    0.273742     2.10981  0.000412864
500    0.212843    0.267672     4.23215  0.000503354
510      0.2093    0.264376     3.91563  0.000264645
520     0.20755    0.262748     2.87566  0.000280289
530    0.203694    0.259161     4.32061  0.000340866
540    0.200732    0.256405     3.59804  0.000316592
550    0.197363     0.25327     3.19196  0.000322256
560    0.194287    0.250409      3.0106  0.000280217
570    0.191758    0.248056     3.91355  0.000273304
580    0.188821    0.245323     4.40967  0.00027387
590    0.186281     0.24296     3.41541  0.000271954
600    0.183382    0.240263     5.71835  0.000247274
610    0.181335    0.238359     5.49231  0.000252881
620    0.178324    0.235558     6.57533  0.000334327
630    0.174649    0.232138     5.31183  0.000317277
640    0.171979    0.229654     5.17684  0.000181121
650    0.171026    0.228768     5.53669  0.000181631
660    0.168346    0.226275     6.39411  0.000263187
670    0.165763    0.223871     6.12346  0.000243426
680    0.163478    0.221745     6.43977  0.000203248
690    0.161698    0.220089     5.44581  0.000213892
700      0.1592    0.217766     7.16114  0.000201573
710    0.157666    0.216339     7.43205  0.000115214
720    0.156896    0.215622     5.40002  0.000184533
730    0.153976    0.212905     5.58124  0.000215543
740    0.152585    0.211611     5.35467  6.49288e-05
750    0.152677    0.211697     4.94793  0.000124121
760    0.150102    0.209302     5.08349  0.00021669
770    0.148343    0.207665     6.12095  0.000163232
780    0.146838    0.206264     5.08248   0.0001816
790    0.144711    0.204286     6.30138  0.000179385
800     0.14325    0.202927     6.03109  0.000228803
810    0.140135    0.200029     5.03713  0.000265368
820    0.137943    0.197989     6.03064  0.000160035
830    0.136934    0.197051     5.75907  0.000152688
840    0.134889    0.195148     5.66859  0.00020735
850    0.132787    0.193193     5.66828  0.000132617
860    0.132237     0.19268     5.62311  0.000156351
870     0.12966    0.190284     4.85639  0.000195541
880    0.128326    0.189042     4.35912  0.000146638
890    0.126728    0.187555     4.85537  0.000105281
900     0.12622    0.187083     4.71923  0.000126417
910    0.124199    0.185203      2.9582  0.000155323
920    0.123114    0.184193     2.50734  9.82434e-05
930    0.122234    0.183375     2.23577  0.000116779
940    0.120778     0.18202     2.91364  0.000140558
950    0.119423     0.18076     2.46146  0.000109421
960     0.11859    0.179984     3.45432  0.000101827
970    0.117387    0.178865    0.383945  0.000183479
980     0.11492     0.17657    0.790467  0.000207486
990    0.113237    0.175004     1.87411  0.000150063
1000    0.111919    0.173778     1.87332  0.000168856
1010     0.10986    0.171862     3.13748  0.000171831
1020    0.108482    0.170581     1.78262  0.000100937
1030    0.107841    0.169984     2.27913  9.85611e-05
1040    0.106511    0.168747     2.45921  0.000199355
1050    0.103854    0.166275     2.27918  0.000167903
1060    0.103153    0.165622     1.82709  6.48975e-05
1070    0.102556    0.165067    0.472485  4.11537e-05
1080     0.10233    0.164857    0.291393  4.65881e-05
1090    0.101624      0.1642     0.33639  1.73606e-05
1100    0.101983    0.164534   -0.432008  5.21146e-05
1110    0.100582    0.163231   -0.522091  0.000116188
1120   0.0996588    0.162372    -1.24439  0.000135168
1130   0.0978787    0.160716    -0.20605  0.000135427
1140   0.0969503    0.159852    -0.47824  9.02716e-05
1150   0.0960733    0.159036    0.198973  0.000122642
1160   0.0944975     0.15757    0.154548  0.000125564
1170    0.093562      0.1567    0.425063  1.57341e-05
1180   0.0941828    0.157277     0.33445  -4.33356e-05
1190   0.0944287    0.157506     -0.3436  -3.06182e-06
1200    0.094244    0.157334    0.966268  5.62299e-05
1210   0.0933041     0.15646     1.68861  0.000123796
1220   0.0917681    0.155031    0.921006  0.000161863
1230   0.0900669    0.153448     1.41748  0.00012435
1240   0.0892811    0.152717    0.831098  9.49107e-05
1250   0.0881686    0.151682     1.23744  8.42445e-05
1260   0.0875962    0.151149      1.4627  7.63297e-05
1270    0.086642    0.150262     0.51444  0.00014986
1280    0.084599    0.148361    0.875832  7.66709e-05
1290   0.0851086    0.148835   -0.208475  6.18957e-06
1300   0.0844752    0.148246    0.107345  9.06702e-05
1310   0.0832952    0.147148   -0.119494  0.000115422
1320   0.0821668    0.146098    0.151726  0.000121157
1330   0.0808721    0.144894    -1.33831  1.0211e-06
1340   0.0821464    0.146079    -2.24196  1.48661e-05
1350   0.0805748    0.144617    -1.88088  9.70144e-05
1360   0.0802061    0.144274    -2.87559  3.41695e-05
1370   0.0798914    0.143981    -2.78467  5.62359e-05
1380   0.0790814    0.143228    -2.60366  0.00010588
1390   0.0777738    0.142011    -2.60393  8.68175e-05
1400    0.077345    0.141612    -3.05549  8.15373e-05
1410    0.076143    0.140494     -2.6941  8.44527e-05
1420    0.075656    0.140041    -2.46889  2.10974e-05
1430   0.0757211    0.140101    -2.28881  7.37615e-05
1440   0.0741807    0.138668    -2.87458  2.67282e-05
1450   0.0751865    0.139604    -1.92791  6.58002e-05
1460   0.0728647    0.137444    -1.56625  6.57611e-05
1470   0.0738713     0.13838    -2.19882  -5.62854e-05
1480   0.0739904    0.138491    -1.88322  7.44075e-05
1490   0.0723831    0.136996    -1.79309  0.000177653
1500   0.0704374    0.135186    -1.88282  8.31425e-05
1510   0.0707203    0.135449    -1.65858  1.63946e-05
1520   0.0701095    0.134881    -3.28321  7.51324e-05
1530   0.0692176    0.134051    -2.51587  0.000120111
1540   0.0677073    0.132646    -2.01914  6.70858e-05
1550   0.0678759    0.132803     -1.3871  5.04937e-05
1560   0.0666974    0.131706    -1.43161  9.55176e-05
1570   0.0659656    0.131025    -1.43254  0.000107029
1580   0.0645568    0.129715    -2.78727  0.000155134
1590   0.0628629    0.128139    -2.42628  0.000130102
1600   0.0619548    0.127294    -2.11085  0.000102211
1610   0.0608187    0.126237    -1.97542  9.39539e-05
1620   0.0600757    0.125546     -2.2008  8.00548e-05
1630   0.0592176    0.124747    -1.79459  -1.8972e-05
1640   0.0604551    0.125899    -1.38864  -2.4575e-05
1650   0.0597091    0.125205    -1.52421  1.21841e-05
1660   0.0602115    0.125672    -2.06682  -1.61577e-05
1670   0.0600322    0.125505    -2.24805  5.49756e-05
1680   0.0591119    0.124649    -1.11879  7.78725e-05
1690   0.0584748    0.124056    -1.88595  2.38262e-05
1700   0.0586354    0.124206   -0.893448  6.68168e-05
1710   0.0571384    0.122813    -1.07353  9.54881e-05
1720   0.0567257    0.122429   -0.622007  3.27412e-05
1730   0.0564836    0.122204   -0.757044  4.14448e-05
1740   0.0558968    0.121658    -1.57009  5.58935e-05
1750   0.0553657    0.121164   -0.486221  5.3159e-05
1760   0.0548336    0.120669   -0.576613  1.00898e-05
1770    0.055164    0.120976   -0.712531  -5.03801e-05
1780   0.0558412    0.121606   -0.712796  -7.18236e-06
1790   0.0553076     0.12111    -1.07397  -3.03846e-05
1800   0.0564489    0.122172    -1.07476  -3.03594e-05
1810   0.0559148    0.121675   -0.894065  8.24399e-05
1820   0.0548001    0.120638    -1.25449  5.65032e-05
1830   0.0547847    0.120623   -0.893536  -7.17267e-06
1840   0.0549435    0.120771    -1.88767  -1.8814e-05
1850    0.055161    0.120973    -2.15836  -2.17753e-05
1860    0.055379    0.121176    -1.93245  -2.18209e-05
1870   0.0555974    0.121379    -1.88741  3.06614e-05
1880   0.0547658    0.120606    -1.84259  0.000138772
1890    0.052822    0.118797    -2.38317  9.51679e-05
1900   0.0528625    0.118835    -1.39023  8.67387e-05
1910   0.0510872    0.117183    -2.60896  6.63038e-05
1920   0.0515364    0.117601    -2.97083  -3.32201e-05
1930   0.0517516    0.117802    -2.20362  6.95802e-05
1940   0.0501448    0.116307    -2.51944  0.000113797
1950   0.0494757    0.115684    -1.75215  9.05586e-05
1960   0.0483336    0.114622    -2.20349  8.78025e-05
1970   0.0477196     0.11405    -1.93254  4.66894e-05
1980   0.0473998    0.113753    -1.84263  0.000100074
1990   0.0457181    0.112188    -1.97731  0.000150597
2000   0.0443879    0.110951    -1.16476  2.6435e-05
2010   0.0451894    0.111696    -1.84254  -5.94813e-05
2020   0.0455775    0.112057   -0.759645  1.16915e-05
2030   0.0449556    0.111479    -1.34647  -1.81049e-05
2040   0.0459396    0.112394   -0.895564  2.81055e-06
2050   0.0448994    0.111427    -1.30151  0.000110135
2060   0.0437369    0.110345   -0.217205  2.37525e-05
2070   0.0444244    0.110985   -0.263349  6.28114e-05
2080   0.0424807    0.109176   -0.805128  0.000125715
2090     0.04191    0.108645    -1.30186  3.91472e-05
2100   0.0416977    0.108448   -0.173133  9.03239e-05
2110   0.0401036    0.106965   -0.173134  3.63275e-05
2120   0.0409712    0.107772  -0.0377001  -4.47135e-05
2130   0.0409978    0.107797   0.0973808  3.65136e-05
2140   0.0402409    0.107093   0.0518103  2.14647e-05
2150   0.0405685    0.107397    0.276974  -2.97993e-05
2160   0.0408369    0.107647  -0.0840645  4.27557e-05
2170   0.0397134    0.106602   -0.851052  0.000115512
2180   0.0385266    0.105498   -0.354005  1.87097e-05
2190   0.0393392    0.106254   -0.354623  1.88842e-05
2200   0.0381489    0.105146    0.276842  0.000119187
2210   0.0369555    0.104036    0.638367  0.000113406
2220   0.0358808    0.103036   0.0513693  9.23533e-05
2230   0.0351084    0.102318     0.27671  -1.42729e-05
2240   0.0361663    0.103302    0.140306  5.30781e-05
2250   0.0340469     0.10133   -0.535583  0.00011118
2260   0.0339427    0.101233    0.231757  7.4815e-05
2270   0.0325506   0.0999379    0.276886  6.26486e-05
2280   0.0326897    0.100067    0.818401  1.98783e-05
2290    0.032153    0.099568     0.63766  4.45047e-05
2300   0.0317996   0.0992393     1.27005  2.30618e-05
2310   0.0316918   0.0991389      1.4953  -3.24031e-05
2320   0.0324477   0.0998422    0.410777  6.64346e-05
2330   0.0303631   0.0979028     0.81787  7.26105e-05
2340   0.0309955   0.0984911    0.816769  4.51001e-05
2350   0.0294611   0.0970636    0.636558  0.000113314
2360   0.0287292   0.0963827    0.546387  -1.67768e-05
2370   0.0297966   0.0973758   0.0488557  -3.84712e-05
2380   0.0294986   0.0970985  0.00385837  7.34342e-05
2390   0.0283279   0.0960094   -0.356961  4.97363e-06
2400   0.0293991    0.097006     0.81668  -4.48158e-05
2410   0.0292242   0.0968433     0.45573  5.00325e-06
2420   0.0292991   0.0969129   -0.041051  3.00735e-05
2430   0.0286228   0.0962837    0.410248  2.38382e-05
2440   0.0288223   0.0964693    0.319723  3.02366e-05
2450    0.028018   0.0957211   -0.131267  5.22472e-05
2460   0.0277774   0.0954972  -0.0406983  8.36877e-06
2470   0.0278507   0.0955654  -0.0410071  3.36149e-05
2480   0.0271051   0.0948717   -0.311654  -1.06115e-06
2490   0.0278719   0.0955851   -0.311962  -4.20284e-05
2500   0.0279456   0.0956537   -0.853829  8.42847e-06
2510   0.0277033   0.0954283   -0.808964  2.09659e-06
2520   0.0279037   0.0956147   -0.628313  -2.00759e-05
2530   0.0281048   0.0958018   -0.853962  -4.24972e-06
2540   0.0279887   0.0956938   -0.086269  -6.47163e-05
2550   0.0293992    0.097006    0.455024  -3.2941e-05
2560   0.0286475   0.0963067     1.26811  5.61369e-05
2570   0.0282764   0.0959615    0.545548  2.43796e-05
2580   0.0281599   0.0958531  -0.0863131  8.46535e-06
2590   0.0281071    0.095804     0.27402  5.97279e-05
2600   0.0269654   0.0947417   -0.312624  5.6613e-05
2610   0.0269749   0.0947506   -0.944839  9.21675e-05
2620    0.025122   0.0930268   -0.312492  7.94286e-05
2630   0.0253863   0.0932727   -0.448675  8.94861e-06
2640    0.024943   0.0928603  0.00293188  3.47216e-05
2650   0.0246919   0.0926266   -0.493893  4.12893e-05
2660   0.0241173    0.092092   -0.177587  7.0476e-05
2670   0.0232823   0.0913153   -0.223202  -1.67608e-05
2680   0.0244525   0.0924039     0.36353  3.84372e-05
2690   0.0225136   0.0906001  -0.0874597  9.35221e-05
2700    0.022582   0.0906637    0.453966  6.1444e-06
2710   0.0223907   0.0904857    0.363662  -1.01306e-05
2720   0.0227846   0.0908522     1.17596  1.27009e-05
2730   0.0221367   0.0902494     1.80813  3.55081e-05
2740   0.0220745   0.0901915      1.3567  -3.57013e-06
2750   0.0222081   0.0903158     1.26599  -4.61164e-05
2760   0.0229968   0.0910496     1.85233  1.60685e-05
2770   0.0218867   0.0900168     1.67177  8.16248e-05
2780   0.0213643   0.0895308     1.58164  3.25941e-05
2790   0.0212348   0.0894104      1.4005  -1.66575e-05
2800   0.0216975   0.0898408     1.12977  -3.31423e-05
2810   0.0218977    0.090027     1.08424  6.35274e-06
2820   0.0215704   0.0897226    0.497729  0.00010218
2830   0.0198541   0.0881258     1.49098  0.000108989
2840   0.0193906   0.0876946     2.07736  8.61852e-05
2850   0.0181304   0.0865222     1.89693  7.97313e-05
2860    0.017796   0.0862111     1.76101  4.34589e-05
2870   0.0172612   0.0857135     1.53536  -9.68901e-06
2880   0.0179898   0.0863913     0.36062  3.73553e-07
2890   0.0172537   0.0857066     1.17357  5.70139e-05
2900   0.0168495   0.0853305     1.57965  3.71402e-05
2910   0.0165109   0.0850155     1.08252  7.40717e-05
2920   0.0153681   0.0839522    0.857181  0.000107743
2930   0.0143561   0.0830107     1.26375  0.000108053
2940    0.013207   0.0819417     1.08314  2.09555e-05
2950    0.013937   0.0826208     1.62457  4.47113e-05
2960   0.0123128   0.0811098     1.94122  8.84925e-05
2970   0.0121671   0.0809743    0.992527  4.49692e-05
2980   0.0114134    0.080273     1.17322  -9.03546e-06
2990   0.0123478   0.0811424     1.75973  7.23079e-05
3000  0.00996723   0.0789276     1.35436  0.000109571
3010   0.0101564   0.0791036     1.26366  -1.96607e-06
3020   0.0100066   0.0789642    0.631576  1.16018e-05
3030  0.00992436   0.0788877    0.675779  6.95169e-05
3040  0.00861622   0.0776707    0.540787  6.28107e-05
3050  0.00866814    0.077719      1.0823  1.87048e-05
3060  0.00824212   0.0773227    0.630826    3.24e-05
3070  0.00802014   0.0771161    0.901782  -8.58745e-06
3080  0.00841387   0.0774824     1.03695  -2.22838e-05
3090  0.00846582   0.0775308     0.49526  -1.76462e-06
3100  0.00844916   0.0775153    0.450086  1.8861e-05
3110   0.0080886   0.0771798     1.48869  5.33303e-05
3120  0.00738255    0.076523    0.224657  8.62181e-06
3130  0.00791616   0.0770194     0.44991  -2.92599e-05
3140  0.00796775   0.0770674    0.585476  8.67152e-06
3150  0.00774273   0.0768581   -0.407513  8.6759e-06
3160  0.00779423    0.076906    0.178733  -1.68816e-06
3170   0.0077765   0.0768895    0.179218  -3.64442e-05
3180  0.00852312   0.0775841  -0.0016092  3.65824e-05
3190  0.00704485   0.0762088  -0.000727373  1.21307e-05
3200   0.0082805   0.0773584  -0.0917807  -5.04537e-05
3210  0.00805392   0.0771476    0.315181  3.31716e-05
3220  0.00761707   0.0767411    0.179703  -1.92522e-05
3230  0.00843897   0.0775058    0.856607  -1.92093e-05
3240  0.00800126   0.0770986    0.495745  -2.98974e-05
3250  0.00903691   0.0780621    0.133515  -0.000121291
3260   0.0104271   0.0793554    0.494687  -3.00699e-05
3270  0.00963831   0.0786216    0.856211  3.66769e-05
3280  0.00969354    0.078673     1.03673  -5.14456e-05
3290   0.0106672   0.0795788    0.268464  -2.0117e-06
3300  0.00973377   0.0787104    0.223466  1.20126e-05
3310    0.010427   0.0793553    0.359121  -7.29749e-05
3320   0.0111933   0.0800682   0.0425062  1.42069e-06
3330   0.0103986   0.0793289     1.26194  1.90992e-05
3340   0.0108113   0.0797129     1.21659  -6.62719e-05
3350    0.011724    0.080562     1.03536  2.63584e-05
3360   0.0102841   0.0792224     1.08071  1.1959e-05
3370   0.0114848   0.0803395    0.854359  -3.07631e-05
3380   0.0108994   0.0797948     0.99019  -4.53344e-05
3390   0.0123915    0.081183    0.989881  -1.2994e-05
3400   0.0111593   0.0800366    0.945059  4.78934e-05
3410   0.0114336   0.0802919    0.177235  8.53133e-06
3420   0.0109886   0.0798779    0.718087  5.17875e-05
3430   0.0103979   0.0793283    0.718485  5.19357e-05
3440  0.00994992   0.0789115     1.17018  5.93415e-05
3450  0.00921106   0.0782241    0.763614  6.67489e-05
3460  0.00861494   0.0776695     1.07948  1.97844e-05
3470  0.00881537    0.077856    0.943428  4.89834e-05
3480  0.00763528   0.0767581    0.717735  8.90682e-05
3490    0.007034   0.0761987    0.492086  5.53341e-06
3500  0.00752461   0.0766551    0.492173  -4.18283e-05
3510  0.00787057    0.076977    0.491865  -8.58517e-05
3520  0.00924164   0.0782526    0.717074  -1.64513e-05
3530   0.0081996   0.0772831     1.62055  6.76842e-05
3540  0.00788796   0.0769932      2.5235  9.16081e-06
3550  0.00801638   0.0771126      1.8009  4.23404e-05
3560  0.00704115   0.0762053     2.43311  3.50244e-05
3570  0.00731589   0.0764609     2.07159  4.26135e-05
3580  0.00618888   0.0754124     1.07842  7.5904e-05
3590  0.00579781   0.0750486     2.16207  3.17665e-05
3600  0.00555355   0.0748214     2.20742  6.52545e-05
3610  0.00449272   0.0738344     2.56846  0.000121109
3620  0.00313137   0.0725679     2.74937  0.000102866
3630   0.0024354   0.0719204     2.52368  -1.22649e-05
3640  0.00337666   0.0727961     2.97462  -8.44045e-06
3650   0.0026042   0.0720774     2.83972  -1.2339e-05
3660  0.00362344   0.0730257     3.29062  -1.59828e-05
3670  0.00292386   0.0723748     2.97493  5.13235e-05
3680  0.00259697   0.0720707     1.61985  4.77601e-05
3690  0.00196866   0.0714862     2.11619  5.54101e-05
3700  0.00148877   0.0710397     1.70997  5.18308e-05
