Time   C(t)   
ps   
0           1           1  5.13462e-11   0.0503178
10    0.503929    0.612392    -1.34237   0.0267651
20    0.464697    0.581738    0.304497  0.00321244
30     0.43968    0.562191    -1.79981  0.00249481
40    0.414801    0.542751    -1.65207  0.00213239
50    0.397033    0.528868    -3.30933  0.00153341
60    0.384133    0.518788    -0.16027  0.00131961
70     0.37064    0.508246     2.98865  0.00100095
80    0.364114    0.503146    0.737914  0.000918193
90    0.352277    0.493897    0.584603  0.000664093
100    0.350832    0.492769     1.93247  0.000428966
110    0.343697    0.487194     3.58299  0.00101788
120    0.330475    0.476862      4.1832  0.000677685
130    0.330144    0.476603     7.63068  0.000327891
140    0.323917    0.471738     6.42953  0.000375886
150    0.322626    0.470729     6.42807  0.000291123
160    0.318094    0.467189     2.97414  0.00012943
170    0.320037    0.468707     3.87277  0.000139622
180    0.315302    0.465007     2.22063  0.000579122
190    0.308455    0.459657     1.62423  0.000369728
200    0.307907    0.459229     4.02359  0.000294216
210     0.30257    0.455059    0.870128  0.000447939
220    0.298948    0.452229   -0.480076  0.000295426
230    0.296662    0.450442     4.46652  0.000430575
240    0.290337      0.4455   -0.484471  0.000392772
250    0.288806    0.444304     6.26846  0.000220583
260    0.285925    0.442053     2.96652  0.000182433
270    0.285158    0.441454      6.7155  5.75289e-05
280    0.284775    0.441154     11.9673  0.000202489
290    0.281108    0.438289     8.66781  0.000135094
300    0.282073    0.439043     5.51333  0.000367802
310    0.273752    0.432542      5.8179  0.000474587
320    0.272581    0.431627     6.71814  0.000369295
330    0.266366    0.426771     7.16532  0.000214544
340     0.26829    0.428274     8.21228  5.02661e-05
350    0.265361    0.425985     2.06263  0.000439103
360    0.259508    0.421412      13.768  0.000576164
370    0.253837    0.416981     7.01582  -9.50396e-05
380    0.261409    0.422897     5.81307  2.24769e-05
390    0.253388     0.41663     3.86603  0.000226827
400    0.256872    0.419353     4.61354  4.21733e-05
410    0.252544    0.415971     14.3635  0.000120102
420     0.25447    0.417476     7.01113  -0.000222164
430    0.256988    0.419443     3.25952  0.000179474
440    0.250881    0.414671     6.11456  0.000444424
450    0.248099    0.412498     4.76099  4.26263e-05
460    0.250028    0.414005     2.96184  8.23289e-05
470    0.246453    0.411211      7.6087  0.000239768
480    0.245233    0.410258     8.36017  0.000122107
490    0.244011    0.409303      6.1068  3.35515e-05
500    0.244562    0.409734     5.20627  0.000349817
510    0.237014    0.403836     6.85782  0.00014246
520    0.241713    0.407508     4.30648  0.000222603
530    0.232562    0.400358     8.35753  0.000281799
540    0.236077    0.403104     2.05647  -2.44565e-05
550    0.233051     0.40074     4.60475  0.000412103
560    0.227835    0.396664     5.80677  -0.000104106
570    0.235133    0.402367    0.854892  -3.40052e-05
580    0.228515    0.397195     3.85592  0.000383617
590    0.227461    0.396372     9.25527  -4.4094e-05
600    0.229397    0.397884     4.75278  0.000265452
610    0.222152    0.392224    -1.84757  0.000455406
620    0.220289    0.390768    0.101376  0.00017655
630    0.218621    0.389465     4.60416  0.000287116
640    0.214546    0.386281     4.00513  6.84261e-06
650    0.218484    0.389358     4.89994  2.73645e-05
660    0.213999    0.385853     1.59801  0.000187732
670     0.21473    0.386424     5.49912  0.000329236
680    0.207414    0.380708     1.89789  0.00016843
690    0.211361    0.383792     5.95041  -0.000354791
700     0.21451    0.386253     6.84566  -3.2708e-05
710    0.212015    0.384303     4.14642  0.000229577
720    0.209919    0.382665    0.995019  0.000432362
730    0.203368    0.377546   -0.203634  0.000331828
740    0.203282    0.377479    0.995898  0.000261948
750    0.198129    0.373453     3.39701  -8.27275e-05
760    0.204937    0.378772     4.29505  -0.000275225
770    0.203633    0.377754     3.09449  -8.30829e-05
780    0.206598    0.380071   -0.656389  -1.60635e-06
790    0.203666    0.377779     5.34244  0.000548336
800    0.195632    0.371502     2.49516  0.000651249
810    0.190641    0.367602     2.64672  0.000264765
820    0.190336    0.367364     4.44264  0.000153159
830    0.187577    0.365209     5.04475  8.17247e-05
840    0.188702    0.366087    -1.40683  0.000317757
850    0.181222    0.360243   0.0947839  0.000564142
860    0.177419    0.357271     5.19382  -1.96941e-05
870    0.181616    0.360551   -0.957736  -0.000142644
880    0.180272      0.3595     0.23945  -9.48459e-06
890    0.181806    0.360699     2.34156  0.000176081
900     0.17675    0.356749     3.39276  0.000196728
910    0.177871    0.357625     2.49004  2.19777e-05
920    0.176311    0.356405     4.58907  9.42387e-05
930    0.175986    0.356152     3.08717  0.000301472
940    0.170281    0.351694   0.0881923  0.000136083
950    0.173265    0.354025     4.73887  -0.000215712
960    0.174595    0.355065     2.03655  0.00042738
970    0.164717    0.347347     7.29124  0.000323772
980     0.16812    0.350005   -0.511867  6.51218e-05
990    0.163415    0.346329     2.93898  -4.97691e-05
1000    0.169115    0.350783     2.78758  1.32635e-05
1010     0.16315    0.346122    0.688104  0.000263188
1020    0.163852     0.34667     1.88954  3.4219e-05
1030    0.162465    0.345587     1.13778  -0.00014368
1040    0.166725    0.348915    0.234911  -0.000133208
1050    0.165129    0.347669    -2.31497  0.000264631
1060    0.161433     0.34478    -1.26245  0.000254612
1070    0.160037     0.34369     3.08526  0.000444489
1080    0.152543    0.337834     2.33497  8.74147e-05
1090    0.158289    0.342324   -0.814826  9.88863e-05
1100    0.150565    0.336289    -0.51509  0.000214346
1110    0.154002    0.338974    -6.06878  -6.95877e-05
1120    0.151957    0.337376    -1.86808  5.67779e-05
1130    0.152866    0.338087    -4.26802  -5.93178e-05
1140    0.153143    0.338303    0.680779  4.06951e-06
1150    0.152785    0.338023    -2.16693  0.000364618
1160    0.145851    0.332605    0.383094  8.90307e-05
1170    0.151004    0.336632  -0.0661454  -3.76418e-05
1180    0.146604    0.333193   -0.966524   6.814e-05
1190    0.149642    0.335567    0.684734  -5.91159e-05
1200    0.147786    0.334117   -0.369104  0.000441743
1210    0.140807    0.328664    -1.71623  5.80862e-05
1220    0.146624    0.333209    -6.96828  -0.00037934
1230    0.148393    0.334592    -3.81995  0.00033657
1240    0.139893     0.32795    -3.36925  0.00041176
1250    0.140158    0.328157     -2.6213  -0.000230373
1260      0.1445     0.33155    -4.87101  -0.000123278
1270    0.142624    0.330084     1.73096  0.000327615
1280    0.137948     0.32643    -2.92118  4.83714e-05
1290    0.141656    0.329328    -1.72077  0.000210598
1300    0.133736    0.323139    -1.86837  0.000350649
1310    0.134643    0.323848    -1.72107  -0.000101645
1320    0.135769    0.324728    -3.36984  -8.02487e-05
1330    0.136248    0.325102    0.529227  -0.000134596
1340    0.138461    0.326831    -3.07347  -9.14544e-05
1350    0.138077    0.326531     -1.4228  -3.75658e-05
1360    0.139212    0.327418     0.37533  0.000136244
1370    0.135353    0.324402   -0.526957  0.00022327
1380    0.134747    0.323929   -0.974288  0.000278425
1390    0.129784    0.320051    -1.57391  0.000616745
1400    0.122412    0.314291  -0.0724426  0.000421591
1410    0.121352    0.313463    -2.17441  -0.000276324
1420    0.127938    0.318609     1.42184  -0.000320277
1430    0.127758    0.318468    -3.22678  0.000445191
1440    0.119034    0.311652    -8.77373  0.000292223
1450    0.121913    0.313901    -5.62555  -5.76913e-05
1460    0.120188    0.312554    -2.32479  5.1821e-05
1470    0.120877    0.313092    -3.82611  -4.6945e-05
1480    0.121127    0.313287    -4.12687  1.90102e-05
1490    0.120497    0.312795    -1.12628  1.90005e-05
1500    0.120747     0.31299    -1.12848  0.000471812
1510     0.11106    0.305422    -5.47663  0.000538684
1520    0.109974    0.304572    -7.27754  2.02592e-05
1530    0.110655    0.305105     -7.2812  2.04038e-05
1540    0.109565    0.304253     -3.9781  0.000319903
1550    0.104257    0.300106    -5.02739  0.000342626
1560    0.102713    0.298899   -0.526223  -7.8921e-05
1570    0.105836    0.301339   -0.978245  -0.000167902
1580    0.106071    0.301523   -0.679534  8.79072e-05
1590    0.104077    0.299965     3.67243  0.00027771
1600    0.100517    0.297183   0.0722244  -0.000235712
1610    0.108792    0.303649    -1.43188  -0.000224382
1620    0.105004     0.30069    -3.67866  8.79817e-05
1630    0.107032    0.302274    -2.93173  -9.08863e-05
1640    0.106822     0.30211    -5.18202  0.00022312
1650     0.10257    0.298787    -2.93202  0.000347064
1660   0.0998809    0.296686    -3.68041  0.000212934
1670    0.098311     0.29546    -5.48293  0.000100841
1680    0.097864     0.29511    -4.43451  -0.000135756
1690    0.101026    0.297581    -6.53619  -3.33786e-07
1700   0.0978707    0.295116    -2.33446  0.000429009
1710    0.092446    0.290877   -0.981907  -0.000158836
1720    0.101047    0.297598    -4.58519  -0.000135693
1730   0.0951598    0.292997    0.366979  0.000237627
1740   0.0962949    0.293884     0.21689  -0.000102272
1750   0.0972053    0.294596    -4.73425  0.000193274
1760   0.0924294    0.290864    -6.83548  0.000364256
1770   0.0899201    0.288903    -2.63419  0.000331067
1780   0.0858081     0.28569    -3.23293  0.000251845
1790   0.0848832    0.284968   -0.532376  -0.000124617
1800   0.0883004    0.287638    -4.88566  -0.00021623
1810   0.0892078    0.288347   -0.235278  9.25224e-05
1820     0.08645    0.286192    -2.93583  0.000172849
1830   0.0857509    0.285646    -4.43715  6.99978e-05
1840     0.08505    0.285098  -0.0882641  0.000196692
1850    0.081817    0.282572    -0.98806  7.03469e-05
1860   0.0836431    0.283999    -6.23879  0.000209207
1870   0.0776329    0.279303     -4.1358  0.00034776
1880   0.0766879    0.278564    -5.48674  0.000279583
1890   0.0720412    0.274934    -3.08519  0.000256908
1900   0.0715497     0.27455    -6.38815  9.55626e-05
1910     0.07013     0.27344    -2.18818  -0.000205924
1920   0.0756682    0.277768    0.510181  -0.000147918
1930   0.0730883    0.275752    -2.04087  0.000269939
1940   0.0702694    0.273549   -0.240112  8.42649e-05
1950    0.071403    0.274435    0.056693  0.000189649
1960   0.0664764    0.270586    -3.24216  0.000388211
1970   0.0636388    0.268368    -3.54131  0.000108781
1980   0.0643008    0.268886    -5.49201  3.93428e-06
1990   0.0635601    0.268307    -1.29307  3.90112e-05
2000   0.0635206    0.268276    -3.54248  0.000144756
2010    0.060665    0.266045    -3.84193  -0.000137001
2020   0.0662606    0.270417   -0.392396  -0.000207394
2030   0.0648129    0.269286    -1.44345  0.000121405
2040   0.0638325     0.26852     1.70942  0.000310407
2050   0.0586047    0.264435     3.20898  0.000169235
2060   0.0604478    0.265875     2.60907  -0.000290929
2070   0.0644233    0.268981     1.85614  -5.47983e-05
2080   0.0615438    0.266731     1.10672  0.000406841
2090   0.0562865    0.262624     8.00901  -6.69351e-05
2100   0.0628825    0.267777     2.15705  -0.000185184
2110   0.0599902    0.265517   -0.993335  0.000242027
2120    0.058042    0.263995     3.65705  -7.89154e-05
2130   0.0615685    0.266751   -0.246118  -4.29953e-05
2140   0.0589019    0.264667     1.10599  0.000267014
2150   0.0562282    0.262578      4.7059  8.8325e-05
2160   0.0571354    0.263287     7.10584  0.000244422
2170   0.0513398    0.258758      3.6569  0.000220658
2180   0.0527222    0.259839     2.00374  0.000125645
2190   0.0488269    0.256795    0.803326  -9.07185e-05
2200   0.0545366    0.261256     2.90265  -0.000102353
2210   0.0508739    0.258394     2.00461  0.000137778
2220    0.051781    0.259103     2.00476  0.000162543
2230   0.0476231    0.255854     1.10628  -0.000320591
2240   0.0581928    0.264113   -0.397816  -0.000368854
2250   0.0550001    0.261618    -3.69667  0.000477139
2260   0.0486501    0.256657    -2.94477  0.000369029
2270   0.0476196    0.255852    -2.79468  -6.116e-06
2280   0.0487724    0.256752    0.053326  -7.89516e-05
2290   0.0491986    0.257085   -0.548344  6.02063e-06
2300    0.048652    0.256658    -1.14694  0.000127887
2310   0.0466408    0.255087    -4.29703  0.000128126
2320   0.0460895    0.254656    -1.89577   0.0001041
2330   0.0445588     0.25346    -1.14811  5.53552e-05
2340   0.0449824    0.253791    -2.49524  -0.000238466
2350   0.0493282    0.257187    -3.69697  -0.000128406
2360   0.0475505    0.255798     1.55538  0.000178013
2370   0.0457679    0.254405    0.353353  0.000301513
2380   0.0415202    0.251086   -0.995093  0.00011736
2390   0.0434207    0.252571    0.953998  -0.000387667
2400   0.0492736    0.257144    -2.49641  -0.000326669
2410   0.0499541    0.257676    -1.15016  8.02618e-05
2420   0.0476683     0.25589   -0.398257  0.000266037
2430   0.0446333    0.253518    -1.59705  3.10874e-05
2440   0.0470466    0.255404    -3.39855  8.11905e-05
2450   0.0430095    0.252249    -5.49641  -6.04745e-06
2460   0.0471675    0.255498     -3.3987  -8.02198e-05
2470   0.0446139    0.253503    -3.84779  0.000218306
2480   0.0428014    0.252087    0.502564  -4.32068e-05
2490    0.045478    0.254178    -3.84691  -8.0521e-05
2500   0.0444118    0.253345    -2.34661  -0.000193627
2510   0.0493506    0.257204    -8.64826  -0.000256408
2520     0.04954    0.257352    -8.64987  0.000269678
2530    0.043957     0.25299    -12.2492  0.000445946
2540   0.0406211    0.250383    -6.09574  9.49539e-05
2550    0.042058    0.251506    -5.04922  -5.26737e-06
2560   0.0407264    0.250466    -4.89914  7.14771e-06
2570    0.041915    0.251394    -10.2991  -9.37372e-05
2580   0.0426012     0.25193    -5.64943  8.30939e-05
2590   0.0402531    0.250096    -3.54791  5.77696e-05
2600   0.0414458    0.251028    -7.90001  7.08606e-05
2610   0.0388359    0.248988   -0.847494  -0.000132447
2620   0.0440947    0.253097    -5.95122  -0.000145001
2630   0.0417359    0.251254    -5.34838  0.000338098
2640   0.0373328    0.247814    -5.94873  0.000147572
2650   0.0387845    0.248948    -4.59911  -0.000260325
2660   0.0425393    0.251882    -7.75037  -0.0001202
2670   0.0411885    0.250827     -9.7018  9.68363e-05
2680   0.0406025    0.250369    -10.3033  0.00028951
2690   0.0353983    0.246302    -7.14884  0.000148739
2700   0.0376278    0.248044    -10.1522  8.53593e-05
2710   0.0336911    0.244968     -6.5523  8.51601e-05
2720   0.0359246    0.246714    -9.55288  0.000150297
2730   0.0306852     0.24262    -4.90045  0.000137289
2740   0.0331788    0.244568    -12.4016  -2.98899e-05
2750    0.031283    0.243087    -11.0532  -0.000133869
2760   0.0358562     0.24666    -9.40353  -0.000224563
2770   0.0357742    0.246596    -13.9012  0.000138051
2780   0.0330951    0.244503    -10.1519  4.72425e-05
2790   0.0348294    0.245858    -14.6527  -0.000160642
2800    0.036308    0.247013    -10.0042  -0.000200222
2810   0.0388338    0.248987    -8.05318  0.000230157
2820   0.0317048    0.243416     -9.2511  0.000360867
2830   0.0316164    0.243347    -4.45165  0.00016598
2840   0.0283852    0.240823    -7.30186  7.44518e-05
2850   0.0301274    0.242184    -8.95327  -0.000148207
2860   0.0313494    0.243139    -12.7027  -0.000293285
2870   0.0359931    0.246767    -9.55376  -0.000175372
2880   0.0348568    0.245879    -11.9518  0.000179729
2890   0.0323985    0.243959    -11.9537  0.000232957
2900   0.0301977    0.242239    -10.1546  0.000114631
2910   0.0301059    0.242167    -8.50388  -0.00025564
2920   0.0353105    0.246234    -5.05406  4.89826e-05
2930   0.0291262    0.241402    -7.45165  0.000141255
2940   0.0324854    0.244026    -10.4552  -0.000296481
2950   0.0350559    0.246035     -9.2552  -4.41298e-06
2960   0.0325736    0.244095    -14.2041  0.000355264
2970   0.0279506    0.240483    -12.8529  0.000262646
2980   0.0273207    0.239991    -10.6031  -8.40263e-05
2990   0.0296311    0.241796    -13.7546  4.98713e-05
3000   0.0263233    0.239212    -13.3045  0.000116672
3010   0.0272977    0.239973    -15.1042  9.86634e-06
3020   0.0261259    0.239057    -15.4041  5.00859e-05
3030    0.026296     0.23919    -15.1056  0.000171545
3040    0.022695    0.236377    -11.3515  0.000131308
3050   0.0236698    0.237138    -15.7058  -0.000232701
3060   0.0273491    0.240013    -15.8538  -0.000219652
3070   0.0280628    0.240571    -14.9533  -0.000193413
3080   0.0312173    0.243036    -11.5061  -9.88292e-05
3090   0.0300394    0.242115    -13.4556  -4.31193e-06
3100   0.0313036    0.243103    -12.1051  -7.21843e-05
3110   0.0314831    0.243243    -14.6557  0.000213666
3120   0.0270303    0.239764    -15.7056  5.0208e-05
3130   0.0304789    0.242459    -12.8569  6.4597e-05
3140   0.0257383    0.238755    -13.9041  -4.52982e-05
3150   0.0313849    0.243167    -13.3073  0.000119792
3160   0.0233425    0.236883    -15.8553  0.000146592
3170   0.0284531    0.240876    -16.9072  -0.000264384
3180   0.0286302    0.241014    -14.3579  9.2389e-05
3190   0.0266053    0.239432    -13.9075  0.000133862
3200   0.0259529    0.238922    -14.6562  0.000161977
3210   0.0233658    0.236901    -11.9558  5.16821e-05
3220   0.0249193    0.238115    -12.8558  9.36829e-05
3230   0.0214921    0.235437    -16.4571  0.000260015
3240    0.019719    0.234051    -16.0062  -3.07538e-05
3250   0.0221072    0.235917    -16.1587  -0.000280895
3260   0.0253369    0.238441    -19.4599  0.000164086
3270   0.0188254    0.233353    -17.3558  0.000177794
3280    0.021781    0.235662     -18.107  -0.000226141
3290   0.0233483    0.236887    -21.1101  -1.70341e-05
3300   0.0221217    0.235929    -16.0097  -7.33371e-05
3310    0.024815    0.238033    -20.6594  -1.71372e-05
3320   0.0224644    0.236196    -17.0587  8.08157e-05
3330   0.0231987     0.23677    -19.1601  -0.00014392
3340   0.0253428    0.238446    -16.6113  -5.96603e-05
3350   0.0243919    0.237702     -20.362  0.000194059
3360   0.0214617    0.235413    -18.1105  0.000392449
3370   0.0165429     0.23157    -18.4098  0.000365158
3380   0.0141585    0.229707    -14.5099  6.86171e-05
3390   0.0151706    0.230497    -15.8611  0.000125905
3400   0.0116404    0.227739    -18.4107  0.00018285
3410   0.0115136     0.22764    -16.9114  0.000183657
3420  0.00796725    0.224869    -16.1591  -8.71549e-05
3430   0.0132567    0.229002    -16.3117  -0.000301102
3440   0.0139893    0.229574     -18.263  -7.33676e-05
3450    0.014724    0.230148    -20.9618  -0.000130928
3460   0.0166078     0.23162     -19.612  -1.63952e-05
3470   0.0150519    0.230405    -17.6635  0.00031399
3480   0.0103281    0.226714    -14.9631  0.00024271
3490   0.0101977    0.226612    -17.3624  0.000128429
3500  0.00775947    0.224707     -13.763  0.000301988
3510  0.00415797    0.221893    -16.6123  0.000360703
3520  0.000545408     0.21907    -16.1613  -0.000101847
3530  0.00619491    0.223484    -20.0643  -0.000188522
3540  0.00431586    0.222016    -17.9626  -0.000146092
3550  0.00911674    0.225767    -22.6126  -0.000131463
3560  0.00694512     0.22407    -17.2124  0.000217498
3570  0.00476679    0.222368    -19.0125  0.000159764
3580  0.00374983    0.221574    -17.3651  -1.5149e-05
3590  0.00506977    0.222605    -19.4644  -0.000176139
3600  0.00727261    0.224326    -19.6152  0.000292841
3610  -0.000787056    0.218029    -18.5643  0.000454587
3620  -0.00181913    0.217222    -19.0146  5.9217e-05
3630  -0.0019714    0.217103     -18.265  -0.000264815
3640  0.00347716    0.221361    -18.4164  -4.37534e-05
3650  -0.00109633    0.217787    -21.2649  0.000324983
3660  -0.00302251    0.216282    -19.1647  4.48261e-05
3670  -0.00199285    0.217087     -17.065  -4.37992e-05
3680  -0.00214652    0.216967    -17.2135  5.39701e-07
3690  -0.00200365    0.217078    -18.1149  -0.000133359
3700  0.000520654    0.219051    -18.4136  -8.88808e-05
3710  -0.000226028    0.218467    -19.1664  0.000179273
3720  -0.00306481    0.216249    -20.9643  0.000104918
3730  -0.00232438    0.216828    -17.2141  -0.000193965
3740  0.000814499     0.21928    -18.2641  4.55947e-05
3750  -0.00323627    0.216115    -19.0136  0.000180378
3760  -0.00279307    0.216461    -18.1136  1.57964e-05
3770  -0.0035522    0.215868    -19.3134  -0.000180188
3780  0.000810704    0.219277    -22.0147  -0.000104873
3790  -0.00145475    0.217507    -19.3155  0.000151306
3800  -0.00221541    0.216913     -21.415  0.000288214
3810  -0.00721902    0.213003    -21.1133  1.57573e-05
3820  -0.00253055    0.216666    -21.5661  -0.000272092
3830  -0.00177718    0.217255    -21.1155  0.000213697
3840  -0.00680449    0.213327    -20.3642  -6.04481e-05
3850  -0.000568217      0.2182    -24.4169  -0.000227677
3860  -0.00225096    0.216885    -22.4659  0.000122659
3870  -0.0030214    0.216283    -20.9659  5.90249e-07
3880  -0.00226276    0.216876    -19.7678  0.000184849
3890  -0.00671839    0.213394    -22.9163  0.000108183
3900  -0.00442641    0.215185    -20.9659  3.21211e-05
3910  -0.00736081    0.212892    -19.6149  6.26383e-05
3920  -0.00567918    0.214206    -19.1658  -6.03298e-05
3930  -0.00615421    0.213835    -20.5159  -7.61796e-05
3940  -0.00415559    0.215397    -20.6661  -4.52342e-05
3950  -0.00524953    0.214542    -20.8158  0.000249262
3960  -0.00914083    0.211501     -19.915  0.00012548
3970  -0.00775913    0.212581    -18.7145  -4.49739e-05
3980  -0.00824135    0.212204     -21.117  -2.96743e-05
3990  -0.00716564    0.213045    -20.3651  3.28677e-05
4000  -0.00889871    0.211691    -18.2647  0.000189238
4010  -0.0109504    0.210088    -19.1639  0.000299578
4020  -0.0148903    0.207009    -24.4145  -0.000139253
4030  -0.00816534    0.212264    -21.4147  -0.000390498
4040  -0.00708032    0.213111    -23.3654  0.000206434
4050   -0.012294    0.209038    -26.9638  0.000253945
4060  -0.0121592    0.209143    -24.4135  0.000176206
4070  -0.0158181    0.206284    -23.8137  -0.000108559
4080  -0.00998804     0.21084    -23.3651  -0.000171572
4090  -0.0123867    0.208965     -20.815  0.000256164
4100  -0.0151113    0.206836    -19.4635  0.000257005
4110  -0.0175268    0.204949    -19.9138  -0.000300108
4120  -0.00910915    0.211526    -22.0169  -0.000236332
4130  -0.0128002    0.208642    -20.5165  9.77784e-05
4140  -0.0110647    0.209998    -20.2153  -1.35975e-05
4150  -0.0125282    0.208855    -23.3655  0.000146614
4160   -0.013997    0.207707    -22.1667  9.88768e-05
4170  -0.0145057     0.20731    -21.8664  0.000244256
4180  -0.0188821     0.20389    -20.0652  0.000277042
4190  -0.0200466     0.20298    -19.9144  1.9665e-05
4200  -0.0192754    0.203583    -20.3681  8.46595e-05
4210  -0.0217398    0.201657    -19.6158  0.000117113
4220  -0.0216177    0.201753    -21.8649  2.02591e-05
4230  -0.0221449    0.201341    -19.3159  -4.4831e-05
4240  -0.0207211    0.202453    -19.1653  0.000150832
4250  -0.0251616    0.198984    -20.8159  8.55196e-05
4260  -0.0224314    0.201117    -24.4155  -6.08056e-05
4270  -0.0239455    0.199934    -19.7668  0.00020084
4280  -0.0264483    0.197978    -20.8153  0.000267132
4290  -0.0292881    0.195759    -24.8649  -7.73516e-05
4300  -0.0249012    0.199187    -24.4166  -0.000208787
4310  -0.0251124    0.199022    -21.7167  -2.83708e-05
4320  -0.0243338     0.19963     -23.215  0.000136941
4330  -0.0278512    0.196882    -22.9147  7.0795e-05
4340  -0.0257497    0.198524     -24.265  -0.000243698
4350  -0.0229772     0.20069    -23.6657  -0.000194639
4360  -0.0218569    0.201566    -21.8668  0.000120886
4370  -0.0253949    0.198801    -24.8654  7.08645e-05
4380  -0.0232742    0.200458    -25.9167  -0.000179038
4390  -0.0218142    0.201599    -24.4166  2.11439e-05
4400  -0.0236971    0.200128    -24.8667  0.000121547
4410  -0.0242451      0.1997    -23.2175  -4.58979e-05
4420  -0.0227791    0.200845    -23.8172  -0.000197354
4430   -0.020298    0.202784    -22.7685  -0.000214839
4440  -0.0184823    0.204202    -24.1192  5.45847e-05
4450  -0.0213897    0.201931    -22.9183  0.000325104
4460  -0.0249844    0.199122    -19.9167  7.19335e-05
4470  -0.0228284    0.200807    -20.6672  -2.91861e-05
4480  -0.0244007    0.199578    -22.9169  -1.26145e-05
4490  -0.0225761    0.201004    -20.5181  -0.000114616
4500  -0.0221084    0.201369    -24.1193  2.14415e-05
4510   -0.023005    0.200669    -22.9164  0.000158256
4520  -0.0252735    0.198896    -22.1661  -2.98155e-05
4530  -0.0224086    0.201135    -20.5185  5.63917e-05
4540  -0.0264013    0.198015    -22.4676  0.00010758
4550  -0.0245602    0.199453    -23.0675  0.000177447
4560  -0.0299503    0.195242    -21.5669  0.000281017
4570  -0.0301806    0.195062    -23.3673  0.000196043
4580  -0.0338711    0.192178    -22.6162  0.000300425
4590  -0.0361891    0.190367    -25.0166  0.000249583
4600  -0.0388628    0.188278    -21.2668  -0.00016695
4610  -0.0328501    0.192976    -23.2175  -0.000358439
4620   -0.031694    0.193879    -19.7681  -2.853e-05
4630  -0.0322795    0.193422    -20.5191  0.000146099
4640   -0.034616    0.191596    -21.7186  0.000234089
4650  -0.0369613    0.189764    -21.1192  0.000199854
4660  -0.0386131    0.188473    -21.4173  4.23746e-05
4670  -0.0378087    0.189102    -20.5181  -0.000151074
4680  -0.0355916    0.190834    -20.0687  0.000113312
4690   -0.040075    0.187331    -23.3683  0.000113113
4700  -0.0378539    0.189066    -22.7687  -2.75966e-05
4710  -0.0395231    0.187762    -26.5185  2.51945e-05
4720  -0.0383578    0.188673    -22.9191  2.5557e-05
4730  -0.0400342    0.187363    -24.7191  4.32042e-05
4740  -0.0392218    0.187997    -25.1677  4.36084e-05
4750  -0.0409064    0.186681    -22.3186  7.93196e-05
4760  -0.0408082    0.186758    -23.3671  8.08705e-06
4770  -0.0410681    0.186555    -25.3186  -0.000117626
4780  -0.0384557    0.188596    -23.0691  -9.83495e-06
4790  -0.0408714    0.186709    -21.5674  0.000368226
4800  -0.0458202    0.182842    -25.1669  8.04011e-05
4810  -0.0424794    0.185452     -27.869  -0.000425221
4820  -0.0373158    0.189487    -27.7195  8.48845e-06
4830  -0.0426492     0.18532    -26.6683  0.000171012
4840  -0.0407361    0.186814    -24.7195  -0.000228087
4850  -0.0380874    0.188884    -26.3693  0.000135874
4860  -0.0434535    0.184691    -20.5178  0.00019044
4870  -0.0418963    0.185908    -23.3696  8.19983e-05
4880  -0.0450935     0.18341    -25.3209  0.000210282
4890  -0.0461019    0.182622    -25.6186  9.1197e-06
4900  -0.0452759    0.183267    -23.3689  -0.000119594
4910    -0.04371    0.184491     -23.519  -0.000212258
4920  -0.0410307    0.186584    -23.3698  -2.80781e-05
4930  -0.0431485    0.184929    -24.4198  0.00030482
4940  -0.0471271    0.181821    -22.6195  0.000231591
4950  -0.0477803     0.18131    -22.9185  -0.000250775
4960  -0.0421116     0.18574    -21.7208  9.77479e-06
4970  -0.0479758    0.181158    -23.2203  0.000419509
4980  -0.0505018    0.179184    -21.8692  -6.49869e-05
4990   -0.046676    0.182173    -20.5207  -0.000549483
