Time   Number   
ps   
0           7           6
10           9           8
20          10           5
30           8          11
40          10           6
50           5           7
60           4           4
70           6           5
80           5           6
90           7           4
100           7           7
110           8           5
120           8           3
130           6           4
140           6           5
150           6           2
160           4           4
170           2           6
180           1           5
190           3           7
200           7           2
210           5           2
220           5           2
230           6           5
240           6           6
250           6           4
260           4           6
270           3           4
280           7           2
290           5           2
300           6           5
310           6           5
320           4           0
330           2           3
340           7           1
350           4          10
360           4           3
370           8           6
380           6           8
390           5           7
400           6           7
410           6          10
420           7           9
430           8           5
440           8           2
450          10           7
460           5           6
470           7           6
480           5           8
490           6           8
500           5           9
510           4          10
520           6           6
530           7           4
540           5           4
550           5           5
560           6           6
570           5           6
580           3           6
590           6           8
600           7           6
610           5           4
620           9           7
630          10           7
640           9           8
650           7           2
660           4          14
670           6           9
680          10           5
690           8           4
700           6           8
710           9           7
720           6           5
730           5           7
740           4          12
750           6           7
760           7          10
770           5           7
780          10           4
790           6          11
800           6           8
810           6          10
820           5          11
830           9           8
840           4          11
850           7          11
860           7          10
870           9           3
880           7           6
890           5           8
900           6           4
910           8           6
920           7           4
930           7          12
940           6           5
950           9           8
960           8           8
970           7           9
980           6           3
990           7          10
1000           7           8
1010           5           8
1020           7           5
1030           9           5
1040           7           5
1050           7           7
1060           8           6
1070           7           9
1080           7           9
1090           8           7
1100           8           5
1110           9           4
1120           6          11
1130           7           7
1140           9           9
1150           7           4
1160           9           6
1170           8          13
1180           8           7
1190           5          15
1200           8           9
1210           8           5
1220           9          10
1230           9          13
1240          14           4
1250          10          10
1260           9          13
1270           6           9
1280           8           8
1290          11           8
1300          12           5
1310          12           6
1320          12           6
1330           9           7
1340          11           9
1350           9          13
1360           8           8
1370          10           7
1380          10           5
1390           8           8
1400          13           7
1410           8           7
1420          11           6
1430          11           6
1440           9           3
1450           9           5
1460           9           9
1470          12           6
1480           8           5
1490           8          11
1500           8          10
1510          10           6
1520           6           6
1530          10           7
1540           9           4
1550           7           4
1560           7           8
1570           9           7
1580           7           5
1590           6           6
1600           8           4
1610           9           3
1620           8           8
1630           7           8
1640           9           6
1650           9           6
1660          11           2
1670          11           4
1680           7          10
1690           9           9
1700           7          16
1710           5          15
1720           9           6
1730           7           5
1740           5          10
1750           7           8
1760           8           3
1770           9           6
1780           8           7
1790           7           8
1800          11           3
1810          11          10
1820           9           8
1830          10           7
1840          10           7
1850           7          10
1860           7           7
1870           5          10
1880           8           8
1890           7           8
1900           6           7
1910           6           8
1920           7           7
1930           7           9
1940           8          10
1950           4           9
1960          11           7
1970           7           9
1980           9           8
1990           8           7
2000           7           6
2010           5           7
2020          10           4
2030           4           7
2040           6           4
2050           7           6
2060           9           5
2070           6           9
2080           6           5
2090           7           4
2100           8           4
2110           7           6
2120           6           8
2130          10           8
2140          10           9
2150           9           6
2160           8           4
2170           8           2
2180           4          10
2190           5           4
2200           9           6
2210           7           6
2220           8           7
2230           5          13
2240           5           7
2250           5           8
2260          11          11
2270          10           7
2280          10           8
2290          10           4
2300           8           8
2310           8           8
2320           6           8
2330          10           6
2340           3          10
2350           8           7
2360           6           4
2370           9           5
2380           7           4
2390           8          12
2400           5           8
2410           8           7
2420           6           7
2430           8           2
2440           4           3
2450           9           6
2460           8           4
2470           5           8
2480           7           9
2490           7           3
2500           6          11
2510           5          15
2520           9           5
2530           9           4
2540           7           6
2550           9           6
2560           7           8
2570           9           3
2580           9           5
2590           4           7
2600           8           8
2610           7           9
2620          10           6
2630          13           6
2640           9           7
2650          11           3
2660           5          11
2670           8           8
2680           7           7
2690           8           9
2700          10           2
2710           8           4
2720           8           8
2730           6           7
2740           8          11
2750           7           9
2760           8           4
2770           7           5
2780          10           7
2790           5          10
2800          11           4
2810           8           5
2820           8           4
2830          10           9
2840           7           8
2850           9           0
2860           7           5
2870           6           6
2880           5           3
2890           7           9
2900           6           8
2910           8           6
2920           9           8
2930           6           7
2940           7           6
2950           5           5
2960           8           7
2970          10           4
2980           9           6
2990          10           6
3000           8           7
3010           7           4
3020           8           6
3030           6           7
3040          10           5
3050           8           6
3060           8           8
3070           9           5
3080           5           6
3090           8          10
3100           6           8
3110           8           9
3120           8           5
3130           7           7
3140           7          10
3150          11           5
3160           5          12
3170           7          10
3180          11           6
3190           7           5
3200           8           8
3210           7           8
3220           8           6
3230           7           6
3240           8           6
3250           7           6
3260          11           3
3270           9           8
3280           7           6
3290           7           7
3300           9           3
3310           8           7
3320          12           3
3330          10           1
3340           9           6
3350           8           5
3360           8           4
3370           7           7
3380           9           6
3390           7           9
3400           7           7
3410           9           5
3420           6           9
3430           9           8
3440           6           9
3450          12           2
3460          11           5
3470           9           6
3480           9           7
3490           6           6
3500           6           9
3510          12           4
3520           9           3
3530           9           6
3540          10           7
3550           9           7
3560           9           3
3570          10           6
3580          10           6
3590          10           4
3600           8           6
3610           8           6
3620          10           7
3630           9           9
3640           8           3
3650           8           4
3660          13           5
3670           7           8
3680           8           8
3690           7           7
3700           7           6
3710           5          10
3720           8           8
3730           7           2
3740           9           3
3750           8           8
3760           6           3
3770           8           1
3780           9           2
3790           7           6
3800           8           1
3810           8           4
3820           8           3
3830           8           5
3840           7           3
3850           6           7
3860          10           2
3870           5           6
3880           6           5
3890           7           3
3900          11           5
3910           8           5
3920           8           4
3930           7           4
3940           7           6
3950           7           5
3960           6           6
3970           8           7
3980           5          10
3990           6           6
4000           5           7
4010           7           3
4020           8           2
4030           8           5
4040           8           3
4050           6           3
4060           4           8
4070           9           5
4080           6           5
4090           7           0
4100           8           3
4110           7           5
4120           5           2
4130           7           5
4140           4           5
4150           4           6
4160           3           3
4170           8           3
4180           6           3
4190           6           5
4200           4           3
4210           5           5
4220           4           5
4230           6           6
4240           7           2
4250           8           4
4260           7           3
4270           6           6
4280          10           5
4290           8           9
4300           5           4
4310           4           6
4320           6           6
4330           6           5
4340           5           1
4350           7           1
4360           8           2
4370           5           5
4380           7           2
4390           6           5
4400           7           1
4410           6           5
4420           7           7
4430           8           3
4440           6           1
4450           4           5
4460           8           6
4470           8           6
4480           8           4
4490          10           8
4500           5           4
4510           6           8
4520           8           1
4530           8           4
4540          10           3
4550           5           7
4560           6           7
4570           8           3
4580           6           7
4590           8           6
4600           6           2
4610           4           3
4620           6           2
4630          10           3
4640           7           3
4650           9           3
4660           6           5
4670           6           4
4680          11           4
4690           5           6
4700           7           5
4710           6           3
4720           3          10
4730           7           7
4740           6           7
4750           5          10
4760           5           5
4770           5           5
4780           7           7
4790          11           1
4800           6           3
4810           9           3
4820           7           2
4830           8           3
4840           5           7
4850           9           4
4860           8           2
4870          10           0
4880           8           2
4890           9           3
4900           5           7
4910           5           5
4920           8           3
4930           8           5
4940           5           5
4950          10           3
4960           9           4
4970          10           1
4980          11           0
4990          10           8
5000           6           2
5010           5           5
5020           4           5
5030           9           2
5040           7           6
5050          11           6
5060           9           4
5070          12           2
5080           8           7
5090           9           5
5100           8           6
5110           9           5
5120           6           6
5130           8           6
5140           7           5
5150           8           3
5160           5           7
5170           5           4
5180           8           3
5190           7           4
5200           8           5
5210           3          13
5220           7           5
5230           7           4
5240           5           4
5250           6           4
5260           6           2
5270          10           3
5280           7           7
5290           7           6
5300           8           6
5310          11           7
5320          11           7
5330          10           4
5340          11           6
5350          12           4
5360          13           5
5370          12           8
5380          15           4
5390          10           8
5400          13           2
5410          10           4
5420          14           3
5430          12           4
5440          10           8
5450           8           8
5460          12           5
5470           8           5
5480           9           4
5490           8           6
5500           8           2
5510          10           4
5520           8           2
5530           8           4
5540          10           4
5550          10           3
5560           7           5
5570           9           8
5580           9           5
5590           7           7
5600          10           7
5610           7          10
5620           8           7
5630           8           5
5640           9           7
5650          11           4
5660           8           5
5670           7           8
5680           9           5
5690           8           9
5700           7           8
5710           9           4
5720           7           7
5730           8           3
5740           4           6
5750           6           6
5760           8           5
5770           8           2
5780          11           5
5790           9           5
5800           8          12
5810           9           8
5820          11           6
5830           7           8
5840           8           9
5850           8           9
5860           9           8
5870          10           3
5880           5           9
5890           8           3
5900           6           4
5910           7           5
5920           6           9
5930           4           8
5940           5           8
5950           6           6
5960           7           4
5970           3           6
5980           7           4
5990           9           3
6000           7           5
6010           7           7
6020           6           4
6030           5           4
6040           6           5
6050           5           7
6060           8           5
6070           7           6
6080           6           7
6090           4           6
6100           4           4
6110           5           7
6120           3           8
6130           6           3
6140           7           7
6150           5           8
6160           5           2
6170           5           5
6180           7           5
6190           5           7
6200           5           9
6210           3           7
6220           5           2
6230           8           4
6240           7           9
6250           6           8
6260           4           7
6270           6           6
6280           8           6
6290           6           7
6300           7           3
6310           7           2
6320           7           7
6330           4           5
6340           7           1
6350           5           3
6360           4           2
6370           6           4
6380           4           3
6390           2          11
6400           4           7
6410           4           1
6420           3           6
6430           3           7
6440           1           5
6450           2           3
6460           5           6
6470           5           4
6480           6           4
6490           7           4
6500           5           5
6510           6           5
6520           7           7
6530           8           3
6540           6           5
6550           7           3
6560           4           5
6570           7           3
6580           3           9
6590           6           5
6600           5           3
6610           4           8
6620           4           5
6630           4           8
6640           5           4
6650           5           3
6660           6           6
6670           4           6
6680           5           6
6690           6           4
6700           5           6
6710           3           4
6720           3           5
6730           6           4
6740           2          10
6750           4           4
6760           3           7
6770           4           4
6780           8           5
6790           7           4
6800           8           2
6810          10           7
6820           9           3
6830           6           9
6840           5           4
6850           3           4
6860           2          12
6870           8           5
6880           8           6
6890           8           8
6900           8           8
6910           9           8
6920          10           6
6930           7           5
6940           8           7
6950           5           8
6960           8           8
6970           4           6
6980           7           5
6990           8           5
7000           7           6
7010           6           7
7020           8           8
7030           7           7
7040           4           9
7050           8           8
7060          11           7
7070           7           4
7080           5           5
7090           5           5
7100           8           2
7110           2           6
7120           9           4
7130           7           5
7140           6          10
7150          10           3
7160           7           5
7170           6           5
7180           6           6
7190           5           4
7200           8           5
7210           7           3
7220           9           5
7230           7           6
7240           8           4
7250           8           5
7260           9           6
7270           7           8
7280           6           5
7290           5           7
7300          10           6
7310           6           7
7320           4          10
7330           4           3
7340           9           2
7350           6           7
7360           5           6
7370           6           6
7380           5           9
7390           8           6
7400           9           6
7410           8           2
7420           7           3
7430           9           6
7440           9           9
7450           7           7
7460           9           6
7470           7           8
7480          10           6
7490           5           8
7500           8           4
7510           8           5
7520           5           7
7530           5           4
7540           5           4
7550           7           1
7560           3           5
7570           4           8
7580           5           4
7590           6           2
7600           9           5
7610           6           6
7620           5           2
7630           4           7
7640           7           4
7650           6           2
7660           5           9
7670           8           1
7680           6           7
7690           6           1
7700           6           7
7710           6           4
7720           5           5
7730           5           7
7740           6           6
7750           6           5
7760           7           5
7770           6           7
7780           9           4
7790           3           4
7800           6           2
7810           8           4
7820           9           3
7830           6           6
7840           7           2
7850           7           6
7860           3           3
7870           6           4
7880           6           5
7890           5           2
7900           4           5
7910           6           6
7920           5           4
7930           5           3
7940           2           7
7950           7           4
7960           3           8
7970           5           4
7980           3           7
7990           4           3
8000           4           8
8010           5           8
8020           6           6
8030           2           7
8040           2           8
8050           3           8
8060           2           3
8070           5           4
8080           7           3
8090           6           6
8100           6           5
8110           6           4
8120           7           5
8130           6           6
8140           6           5
8150           6           6
8160           7           7
8170           6           3
8180           6           4
8190           4           8
8200           4           7
8210           6           3
8220           5           7
8230           5           5
8240           8           4
8250           6           7
8260           7           4
8270           4           6
8280           3           6
8290           7           1
8300           5           4
8310           5           4
8320           6           5
8330           5           6
8340           5           5
8350           6           3
8360           4           2
8370           5           4
8380           4           5
8390           7           2
8400           5           4
8410           3           6
8420           9           1
8430           7           3
8440           6           4
8450           7           6
8460           6           2
8470           4           3
8480           4           6
8490           7           4
8500           3           4
8510           5           3
8520           5           5
8530           5           4
8540           6           5
8550           5           5
8560           4           2
8570           6           6
8580           4           4
8590           5           9
8600           6           3
8610           6           4
8620           5           7
8630           4           3
8640           5           4
8650           3           9
8660           4           4
8670           4           6
8680           6           8
8690           6           5
8700           5           4
8710           5           9
8720           4           5
8730           4           8
8740           4           6
8750           5           5
8760           5           9
8770           6           8
8780           6           7
8790           3           8
8800           4           6
8810           4           6
8820           7           6
8830           4           3
8840           6           6
8850           6           5
8860           6           5
8870           5           6
8880           5           5
8890           5           5
8900           4           7
8910           7           6
8920           4           7
8930           9           2
8940           7           3
8950           6           3
8960           5           3
8970           6           5
8980           7           4
8990           3           6
9000           2           6
9010           3           6
9020           5           6
9030           4           6
9040           4           6
9050           4           8
9060           5           5
9070           4           5
9080           4           6
9090           5           6
9100           2           8
9110           6           6
9120           3           5
9130           6           7
9140           4           5
9150           7           5
9160           4           6
9170           4           7
9180           3           4
9190           3           6
9200           3           6
9210           5           6
9220           4           7
9230           6           5
9240           5           6
9250           5           7
9260           7           7
9270           6           8
9280           6           6
9290           6           7
9300           8           3
9310          10           4
9320           5           5
9330           5           5
9340           8           5
9350           8           7
9360           7           6
9370           6           4
9380           9           3
9390           6           7
9400           6           9
9410           4          12
9420           7           4
9430           7           7
9440           8           5
9450           9           8
9460           7           7
9470           7           9
9480           5           9
9490           9           6
9500           7           8
9510          10           6
9520          13           6
9530           5           7
9540           5           4
9550           5           8
9560           4           5
9570           7           7
9580           7           5
9590           6           6
9600           7           4
9610           6           8
9620           9           5
9630           7           8
9640           8          10
9650           7           7
9660           7           5
9670           5           4
9680           4           8
9690           6           6
9700           8           3
9710           7           4
9720           8          11
9730           6           7
9740           5           5
9750           7          10
9760           5           5
9770           6           9
9780           4           3
9790           5           8
9800           4           6
9810           6           3
9820           9           1
9830           8           5
9840           6           6
9850           7           4
9860           8           2
9870           3           4
9880           3          10
9890           7           5
9900           4           3
9910           4           4
9920           4           8
9930           3           7
9940           6           3
9950          10           3
9960           5           2
9970           3          11
9980           6           6
9990           6           3
10000           3           5
