Time   C(t)   
ps   
0           1           1  6.01256e-10   0.0248226
10    0.755292    0.768869   -0.148915   0.0137264
20    0.725471    0.740703   -0.708875  0.00263028
30    0.702686    0.719182   -0.933909   0.0019695
40    0.686081    0.703498   -0.454047  0.00164158
50    0.669855    0.688172    -1.29326  0.00157258
60     0.65463    0.673792    -1.79709  0.00141382
70    0.641578    0.661464   -0.794949  0.00129984
80    0.628633    0.649237     -1.8373  0.00127033
90    0.616172    0.637467    -1.74616  0.00110295
100    0.606574    0.628402   -0.593905  0.00103783
110    0.595415    0.617862   -0.688728  0.00106878
120    0.585198    0.608213   -0.225061  0.00103362
130    0.574743    0.598337    -1.10104  0.00102808
140    0.564637    0.588792    -0.28295  0.000977495
150    0.555193    0.579872     0.68335  0.000911033
160    0.546416    0.571582    0.273304  0.000887615
170    0.537441    0.563104   -0.639359  0.000847217
180    0.529472    0.555578    0.159396  0.000782284
190    0.521795    0.548327    0.102253  0.000800592
200     0.51346    0.540454     1.42251  0.000852138
210    0.504752     0.53223    0.864402  0.00075487
220    0.498363    0.526195     1.04894  0.000711134
230     0.49053    0.518796     3.11352  0.000770576
240    0.482951    0.511638     3.98712  0.000752559
250    0.475478     0.50458     2.34891  0.00074611
260    0.468029    0.497544     2.86951  0.000701149
270    0.461455    0.491335     2.94354  0.000623609
280    0.455557    0.485764     1.73384  0.00064767
290    0.448502      0.4791     1.08142  0.000579327
300     0.44397     0.47482     1.58244  0.000509515
310    0.438312    0.469475     1.20946  0.000588985
320     0.43219    0.463694     1.15358  0.000563176
330    0.427048    0.458837    0.724743  0.000601316
340    0.420164    0.452335    0.538496  0.000578521
350    0.415478    0.447908    0.593587  0.000502969
360    0.410105    0.442833    0.406776  0.000512049
370    0.405237    0.438235    0.760078  0.000511095
380    0.399883    0.433179    0.908102  0.000484975
390    0.395537    0.429074    0.590662  0.000480226
400    0.390278    0.424107    0.571887  0.000478157
410    0.385974    0.420042     1.50131  0.00041991
420     0.38188    0.416175     1.31442  0.000440885
430    0.377156    0.411713     2.39265  0.000406648
440    0.373747    0.408493     1.92679  0.000430712
450    0.368542    0.403577     1.53595  0.000456586
460    0.364615    0.399868    0.939749  0.000369993
470    0.361142    0.396587     1.70132  0.000397022
480    0.356675    0.392368     3.13355  0.000444263
490    0.352257    0.388195     2.44449  0.000414857
500    0.348378    0.384531     2.53697  0.000341837
510     0.34542    0.381738     2.34952  0.000380144
520    0.340775     0.37735     2.12594  0.000409134
530    0.337238    0.374009     2.36685  0.000322731
540     0.33432    0.371254     2.45965  0.000349911
550    0.330239    0.367399     2.68247  0.000382175
560    0.326677    0.364034     1.82633  0.00037078
570    0.322824    0.360395     1.95627  0.000358181
580    0.319513    0.357268     3.01574  0.000348887
590    0.315846    0.353804     2.79169  0.00033422
600    0.312829    0.350955      2.8281  0.000357506
610    0.308696    0.347051     2.64163  0.00034488
620    0.305931     0.34444     2.26901  0.000347652
630    0.301743    0.340484     2.49235  0.000354607
640    0.298839    0.337741     2.78905  0.000309147
650     0.29556    0.334644     2.84465  0.000303572
660    0.292768    0.332006     2.93677  0.000282547
670    0.289909    0.329306     2.88082  0.000301707
680    0.286734    0.326307     2.82453  0.000283876
690    0.284232    0.323944      2.3964  0.000242043
700    0.281893    0.321735     1.74415  0.000276741
710    0.278697    0.318716     2.50664  0.000300139
720     0.27589    0.316065     2.61795  0.000296579
730    0.272765    0.313114     2.09647  0.000288984
740     0.27011    0.310606     2.30071  0.000292696
750    0.266911    0.307584     2.56062  0.000275621
760    0.264598    0.305399     1.48147  0.000225255
770    0.262406    0.303329     1.12746  0.000226694
780    0.260064    0.301117     1.49872  0.000257485
790    0.257256    0.298465     1.23791  0.000300887
800    0.254046    0.295433     1.38621  0.000294228
810    0.251372    0.292907     1.68375  0.000288644
820    0.248273    0.289981     1.73944  0.000265101
830     0.24607    0.287899     1.72027  0.000222633
840    0.243821    0.285775     1.62684  0.000235709
850    0.241356    0.283447     1.92427  0.000236292
860    0.239095    0.281311     2.20251  0.000212611
870    0.237103    0.279431       1.867  0.000267825
880    0.233738    0.276252     2.74169  0.000326429
890    0.230575    0.273264     1.56926  0.000265917
900     0.22842    0.271229     1.95951  0.000240039
910    0.225774     0.26873     2.05252  0.000232084
920    0.223778    0.266845     2.49821  0.00021148
930    0.221544    0.264735     2.36734  0.000246967
940    0.218839    0.262179     2.05132  0.000253802
950    0.216468     0.25994      2.1065  0.000236284
960    0.214113    0.257716     2.29184  0.000230473
970    0.211859    0.255587     1.93805  0.000248007
980    0.209153    0.253031     1.58439  0.000268809
990    0.206483    0.250509     2.10489  0.000216046
1000    0.204832     0.24895     1.43503  0.000194101
1010    0.202601    0.246842      1.5466  0.00020624
1020    0.200707    0.245054     1.93651  0.00021208
1030    0.198359    0.242836     2.64347  0.000210411
1040    0.196499    0.241079     1.99191  0.000216259
1050    0.194034    0.238751     2.58736  0.000246823
1060    0.191563    0.236417     2.64253  0.000235573
1070    0.189323    0.234301     2.95864  0.000226378
1080    0.187035     0.23214     2.08429  0.000210679
1090    0.185109    0.230321     2.73495  0.000178807
1100    0.183459    0.228762     2.67859  0.000207298
1110    0.180963    0.226405     2.08317  0.000217466
1120     0.17911    0.224654     2.08271  0.000211547
1130    0.176732    0.222409     1.95252  0.000210906
1140    0.174892     0.22067      2.5288  0.000204846
1150    0.172635    0.218539      2.2499  0.000173729
1160    0.171417    0.217389     1.63506  0.000179625
1170    0.169043    0.215146     1.41174  0.000210497
1180    0.167207    0.213412     1.70873  0.000192501
1190    0.165193     0.21151     1.39258  0.000154635
1200    0.164114    0.210491     1.81949  0.000172536
1210    0.161742     0.20825     1.81987  0.000224376
1220    0.159627    0.206253     2.30341  0.000156891
1230    0.158604    0.205287     2.20978  0.000132066
1240    0.156986    0.203758      2.2843  0.000164232
1250    0.155319    0.202184     2.17238  0.000163477
1260    0.153716     0.20067     1.87453   0.0001242
1270    0.152835    0.199838     2.19028  0.000141092
1280    0.150894    0.198004     2.07859  0.000193199
1290    0.148971    0.196188     1.46427  0.000154956
1300    0.147795    0.195077    0.887274  0.000143213
1310    0.146107    0.193483     1.24045  0.000193372
1320    0.143928    0.191424    0.626596  0.000181609
1330    0.142475    0.190052    0.514561  0.000127615
1340    0.141375    0.189014    0.570142  0.000116819
1350    0.140139    0.187846    0.495712  0.000122651
1360    0.138922    0.186697    0.532555  0.000150789
1370    0.137123    0.184997   0.0673808  0.000152252
1380    0.135877    0.183821   -0.193206  0.000136967
1390    0.134384     0.18241   -0.118812  0.000118265
1400    0.133512    0.181587    0.420138  0.000139861
1410    0.131586    0.179768    0.662077  0.000186083
1420     0.12979    0.178071   -0.138114  0.000141615
1430    0.128754    0.177093    0.196648  0.000121769
1440    0.127355    0.175771    0.512399   0.0001457
1450     0.12584     0.17434   -0.175756  0.000149373
1460    0.124367    0.172949    0.363593  0.000147464
1470    0.122891    0.171555   -0.120374  0.000137675
1480    0.121614    0.170349   -0.157671  0.000127838
1490    0.120334     0.16914    0.344109  0.000128121
1500    0.119052    0.167928    0.288128  0.000128431
1510    0.117765    0.166714    0.530248  0.000102646
1520    0.116999    0.165989  -0.0097194  9.60968e-05
1530    0.115843    0.164898    0.213371  0.000119077
1540    0.114617     0.16374  -0.0661729  0.000118183
1550     0.11348    0.162666  0.00794825  0.000121894
1560    0.112179    0.161437   -0.382796  0.000124463
1570     0.11099    0.160315   -0.643383  9.50597e-05
1580    0.110278    0.159642   -0.216251  0.000107891
1590    0.108833    0.158276    0.286166  0.000145883
1600     0.10736    0.156886    0.211318  0.000148526
1610    0.105862    0.155471   -0.439686  0.000150025
1620     0.10436    0.154052   -0.514352  0.000106727
1630    0.103728    0.153455   -0.552084  0.000116232
1640    0.102035    0.151856   -0.421674  0.000121056
1650    0.101306    0.151168   -0.496521  9.02724e-05
1660     0.10023    0.150151   -0.106467  0.000129721
1670   0.0987121    0.148717   0.0985015  0.000130002
1680   0.0976297    0.147695    0.823844  7.36319e-05
1690   0.0972394    0.147326    0.116532  0.00011441
1700   0.0953415    0.145534   -0.217849  0.000119245
1710   0.0948545    0.145074     0.28355  6.03672e-05
1720   0.0941342    0.144394    -0.27443  5.46858e-05
1730   0.0937608    0.144041   0.0413208  8.86094e-05
1740    0.092362     0.14272    -0.34906  0.000107418
1750   0.0916125    0.142012    0.376138  7.3874e-05
1760   0.0908845    0.141324    0.766791  7.28756e-05
1770    0.090155    0.140635    0.543101  7.88998e-05
1780   0.0893065    0.139834    0.505932  4.39532e-05
1790   0.0892759    0.139805     0.71021  7.4587e-05
1800   0.0878148    0.138425     0.20803  0.000116957
1810   0.0869367    0.137595     0.57998  9.61319e-05
1820   0.0858921    0.136609    0.189436  6.45675e-05
1830   0.0856454    0.136376   -0.592233  5.77111e-05
1840   0.0847379    0.135519    0.281969  8.02297e-05
1850   0.0840408     0.13486    -0.27621  8.39796e-05
1860   0.0830583    0.133932   -0.257671  7.82456e-05
1870   0.0824759    0.133382    0.207121  6.30721e-05
1880   0.0817969    0.132741   -0.351004  5.84852e-05
1890   0.0813062    0.132277   -0.555772  5.0329e-05
1900   0.0807903     0.13179   -0.779535  6.94748e-05
1910   0.0799167    0.130965    -0.64925  8.86694e-05
1920   0.0790169    0.130115     -1.1703  0.000115092
1930   0.0776148    0.128791     -1.2631  8.55092e-05
1940   0.0773067      0.1285   -0.630965  4.99696e-05
1950   0.0766154    0.127847   -0.724208  6.20324e-05
1960   0.0760661    0.127328    -1.13356  7.89478e-05
1970   0.0750365    0.126355    -1.17044  9.11076e-05
1980   0.0742439    0.125607    -0.64985  7.09523e-05
1990   0.0736174    0.125015    -1.02202  6.15243e-05
2000   0.0730135    0.124445   -0.780207  6.88896e-05
2010   0.0722397    0.123714    -1.26381  7.50773e-05
2020   0.0715119    0.123026    -1.30123  7.28622e-05
2030   0.0707824    0.122337   -0.780261  4.88732e-05
2040   0.0705344    0.122103   -0.780607  4.78186e-05
2050    0.069826    0.121434   -0.985121  5.76124e-05
2060   0.0693822    0.121015   -0.520219  2.98679e-05
2070   0.0692287     0.12087   -0.632019  6.76006e-05
2080   0.0680302    0.119738   -0.799491  7.98773e-05
2090   0.0676311    0.119361  -0.0743481  4.72568e-05
2100   0.0670851    0.118845   -0.334844  6.93068e-05
2110    0.066245    0.118052   -0.427795  5.97034e-05
2120    0.065891    0.117717   -0.428031  5.13308e-05
2130   0.0652184    0.117082   -0.447043  6.4896e-05
2140   0.0645931    0.116491   -0.447116  6.62867e-05
2150   0.0638926     0.11583  -0.0563356  6.52268e-05
2160   0.0632885    0.115259   -0.502934  6.78614e-05
2170   0.0625354    0.114548   -0.223645  8.03189e-05
2180   0.0616821    0.113742    0.111282  5.46632e-05
2190   0.0614422    0.113515  -0.0378866  1.90867e-05
2200   0.0613004    0.113381    0.371142  2.03729e-05
2210   0.0610347     0.11313  -0.0752744  5.87381e-05
2220   0.0601256    0.112272    0.371033  6.99872e-05
2230    0.059635    0.111808  -0.00109897  4.41678e-05
2240   0.0592423    0.111437    -0.11279  4.8013e-05
2250   0.0586747    0.110901    -0.33617  6.05593e-05
2260   0.0580311    0.110294   -0.261759  7.68771e-05
2270   0.0571372    0.109449   -0.522327  6.33473e-05
2280   0.0567642    0.109097   -0.318031  5.23262e-05
2290   0.0560906    0.108461   -0.541211  6.74322e-05
2300   0.0554155    0.107823   -0.466909  6.88603e-05
2310   0.0547134     0.10716   -0.764593  7.52959e-05
2320   0.0539096    0.106401   -0.690162  5.29183e-05
2330   0.0536551     0.10616   -0.857725  6.18769e-05
2340   0.0526721    0.105232   -0.373939  6.5765e-05
2350   0.0523398    0.104918   -0.987755  1.68914e-05
2360   0.0523342    0.104913   -0.783496  3.58501e-05
2370   0.0516228    0.104241    -0.89504  5.61044e-05
2380   0.0512121    0.103853    -1.39726  2.34095e-05
2390   0.0511546    0.103798   -0.690871  4.24789e-05
2400   0.0503626     0.10305   -0.839241  4.00133e-05
2410   0.0503543    0.103043   -0.504769  3.88879e-05
2420   0.0495848    0.102316   -0.337442  8.84915e-05
2430   0.0485845    0.101371   0.0721318  6.19991e-05
2440   0.0483448    0.101145   -0.244437  5.20187e-05
2450   0.0475441    0.100388   -0.169716  6.10538e-05
2460   0.0471238   0.0999913   -0.281769  5.86895e-05
2470   0.0463703   0.0992797    0.220374  7.28779e-05
2480   0.0456662   0.0986146  -0.0399036  5.5157e-05
2490   0.0452672   0.0982377    0.387937  2.58371e-05
2500   0.0451495   0.0981266    0.164447  2.0772e-05
2510   0.0448517   0.0978453   -0.096158  2.72499e-05
2520   0.0446045   0.0976118   0.0897993  5.05105e-05
2530   0.0438415   0.0968912  -0.0591696  7.63915e-05
2540   0.0430766   0.0961687   0.0338355  4.81868e-05
2550   0.0428778   0.0959809  -0.0221634  4.18905e-05
2560   0.0422388   0.0953774   -0.133836  5.1038e-05
2570    0.041857   0.0950168    -0.18989  3.56486e-05
2580   0.0415258    0.094704   -0.320483  4.6134e-05
2590   0.0409343   0.0941453   -0.543664  4.88281e-05
2600   0.0405493   0.0937816   -0.171732  5.2876e-05
2610   0.0398768   0.0931465   -0.450695  5.17039e-05
2620   0.0395152   0.0928049  -0.0788356  3.48996e-05
2630   0.0391788   0.0924872   -0.246325  2.71568e-05
2640   0.0389721   0.0922919    0.144164  4.9486e-05
2650   0.0381891   0.0915524  -0.0975385  5.08932e-05
2660   0.0379542   0.0913305   -0.153611  2.22042e-05
2670    0.037745   0.0911329   0.0137345  1.96304e-05
2680   0.0375616   0.0909597   -0.563058  2.75807e-05
2690   0.0371934   0.0906119   -0.358489  4.34574e-05
2700   0.0366924   0.0901388   -0.228222  3.96084e-05
2710   0.0364012   0.0898637   -0.581906  4.23733e-05
2720    0.035845   0.0893383    -0.71199  3.45347e-05
2730   0.0357105   0.0892113    -1.28889  1.08143e-05
2740   0.0356287    0.089134   -0.805486  -5.06658e-06
2750   0.0358119    0.089307   -0.731347  3.21284e-05
2760   0.0349861   0.0885271   -0.954364  4.54493e-05
2770   0.0349029   0.0884485    -1.28924  5.66766e-06
2780   0.0348728     0.08842    -1.06624  7.02124e-06
2790   0.0347625   0.0883159    -1.14088  4.17652e-05
2800   0.0340375   0.0876311   -0.973576  6.1897e-05
2810   0.0335245   0.0871466    -1.12216  1.78831e-05
2820   0.0336798   0.0872933   -0.824934  1.79825e-05
2830   0.0331649   0.0868069    -1.08538  6.63411e-05
2840    0.032353   0.0860401    -1.27146  4.2299e-05
2850   0.0323189   0.0860079   -0.992842  3.84273e-05
2860   0.0315844   0.0853142   -0.899564  3.84817e-05
2870   0.0315493   0.0852809    -1.12304  4.40439e-05
2880   0.0307036   0.0844821    -1.10444  6.30463e-05
2890   0.0302883     0.08409    -1.04866  4.29369e-05
2900   0.0298448   0.0836711    -1.21604  3.49157e-05
2910     0.02959   0.0834304     -1.1601  5.13315e-05
2920   0.0288182   0.0827014    -1.06733  6.50437e-05
2930   0.0282891   0.0822017    -1.17882  5.5709e-05
2940    0.027704    0.081649   -0.639667  3.67631e-05
2950   0.0275539   0.0815072   -0.639903  3.68937e-05
2960   0.0269661   0.0809521   -0.862939  5.88652e-05
2970   0.0263766   0.0803952    -0.50971  5.76642e-05
2980   0.0258129   0.0798628   -0.974757  6.87981e-05
2990   0.0250006   0.0790956   -0.732746  6.07323e-05
3000   0.0245982   0.0787155   -0.770042  5.54393e-05
3010   0.0238918   0.0780483   0.0114271  5.14388e-05
3020   0.0235694   0.0777438   -0.565583  5.02319e-05
3030   0.0228872   0.0770994   -0.788636  4.75952e-05
3040   0.0226175   0.0768447   -0.751449  2.56185e-05
3050   0.0223748   0.0766155   -0.658879  4.50891e-05
3060   0.0217157    0.075993   -0.826297  5.62948e-05
3070   0.0212489   0.0755521   -0.807811  7.31484e-05
3080   0.0202528   0.0746112   -0.975356  5.66183e-05
3090   0.0201166   0.0744825    -0.95669  2.33989e-05
3100   0.0197848   0.0741692    -1.08705   4.299e-05
3110   0.0192568   0.0736704   -0.938169  4.31009e-05
3120   0.0189228    0.073355    -1.68241  2.36458e-05
3130   0.0187838   0.0732238     -1.3105  3.35416e-05
3140   0.0182519   0.0727214    -1.58954  2.51859e-05
3150   0.0182801    0.072748    -1.85029  2.24871e-05
3160   0.0178022   0.0722966    -2.07358  5.34941e-05
3170   0.0172102   0.0717375    -1.71998  4.65922e-05
3180   0.0168704   0.0714164     -1.7944  6.08692e-05
3190   0.0159929   0.0705876    -1.53383  6.38383e-05
3200   0.0155936   0.0702105    -1.68278  3.43186e-05
3210   0.0153065   0.0699393    -1.75703  1.03119e-05
3220   0.0153874   0.0700157    -1.96196  4.4464e-05
3230   0.0144172   0.0690994    -2.31511  5.0207e-05
3240   0.0143832   0.0690673    -2.01778  9.10503e-06
3250   0.0142351   0.0689274    -1.92477  3.33858e-05
3260   0.0137155   0.0684366    -2.25968  4.20332e-05
3270   0.0133944   0.0681334    -2.29687  4.9558e-06
3280   0.0136164    0.068343    -2.16691  3.08095e-05
3290   0.0127783   0.0675514    -2.22265  6.52815e-05
3300   0.0123108   0.0671098    -2.24114  4.39355e-05
3310   0.0118995   0.0667214    -2.33429  2.10324e-05
3320   0.0118901   0.0667125    -2.29719  2.54581e-05
3330   0.0113904   0.0662405    -2.27864  4.28237e-05
3340   0.0110336   0.0659036    -2.03677  3.86259e-05
3350   0.0106179   0.0655108    -2.14846  2.57011e-05
3360   0.0105196    0.065418    -2.13018  4.04352e-06
3370    0.010537   0.0654345    -2.03719  2.73091e-05
3380  0.00997343   0.0649022    -2.44645  4.48064e-05
3390  0.00964086   0.0645881    -2.29772  3.0391e-05
3400  0.00936561   0.0643281    -2.46516  3.92392e-05
3410  0.00885608   0.0638468    -2.33502  4.95736e-05
3420  0.00837414   0.0633916    -2.31633  4.53372e-05
3430  0.00794933   0.0629904    -2.78165  4.84073e-05
3440  0.00740599   0.0624772    -2.52119  3.53318e-05
3450   0.0072427   0.0623229    -2.74459  2.37111e-05
3460  0.00693177   0.0620293    -2.72621  3.26078e-05
3470  0.00659054    0.061707    -2.78218  2.2376e-05
3480  0.00648425   0.0616066    -2.46596  4.01902e-05
3490  0.00578674   0.0609478    -2.65204  4.76666e-05
3500  0.00553092   0.0607061    -2.61485  4.63688e-05
3510  0.00485936   0.0600718    -2.76377  4.20273e-05
3520  0.00469037   0.0599122     -2.5964  1.84115e-05
3530  0.00449113    0.059724     -2.3545  3.33542e-05
3540  0.00402329   0.0592822    -2.50332  4.98367e-05
3550   0.0034944   0.0587826    -2.48489  5.44661e-05
3560  0.00293397   0.0582533    -2.33596  3.22019e-05
3570  0.00285036   0.0581743    -2.24326  2.18532e-05
3580   0.0024969   0.0578405    -2.48495  5.04054e-05
3590  0.00184225   0.0572221    -2.16865  4.00176e-05
3600  0.00169655   0.0570845    -2.24325  3.26569e-05
3610  0.00118911   0.0566052    -2.15022  4.7811e-05
3620  0.000740331   0.0561813    -2.46655  4.79656e-05
3630   0.0002298   0.0556991    -2.39207  2.08879e-05
3640  0.000322574   0.0557868    -2.33651  3.91765e-05
3650  -0.000553731   0.0549591    -2.29914  6.6529e-05
3660  -0.00100801     0.05453    -2.37349  5.00599e-05
3670  -0.00155493   0.0540134     -2.4852  4.56451e-05
3680  -0.00192091   0.0536678     -2.4296  6.10463e-05
3690  -0.00277585   0.0528602    -2.76431  7.34146e-05
3700  -0.0033892   0.0522809    -2.74559  4.46166e-05
3710  -0.00366819   0.0520174    -2.57839  4.78471e-05
