Time   C(t)   
ps   
0           1           1  1.93849e-10    0.046547
10    0.535856     0.88286    0.591062   0.0236831
20    0.526338    0.880457    -1.28687  0.000819206
30    0.519472    0.878725    0.511557  0.00087232
40    0.508891    0.876054    -1.23398  0.000945944
50    0.500553     0.87395   -0.625539  0.000469188
60    0.499508    0.873686   -0.229152  0.000424115
70    0.492071    0.871809     0.08804  0.000404075
80    0.491426    0.871646  0.00897419  0.000245181
90    0.487167    0.870571   -0.362168  0.000602058
100    0.479385    0.868607    0.167003  0.000344479
110    0.480278    0.868833    -1.12851  0.000495769
120     0.46947    0.866105   -0.863769  0.000480641
130    0.470665    0.866407   -0.784962  -0.000135313
140    0.472176    0.866788   -0.600475  4.62189e-05
150    0.469741    0.866173   -0.996604  0.000581688
160    0.460542    0.863852   -0.626366  0.00023382
170    0.465064    0.864993    -1.07634  -8.80092e-05
180    0.462302    0.864296   -0.309819  0.000239985
190    0.460265    0.863782    -0.70618  0.000287479
200    0.456553    0.862845    -1.05004  0.000679958
210    0.446665     0.86035   -0.705896  0.000225897
220    0.452035    0.861705    -1.52598  -6.0907e-05
230    0.447884    0.860657    -1.86927  0.00014822
240     0.44907    0.860956   -0.811756  -4.00901e-05
250    0.448685    0.860859    -1.34108  0.000521724
260    0.438636    0.858323     -1.2345  0.00040659
270    0.440554    0.858807    -1.68429  -0.000149839
280    0.441633    0.859079    -1.79049  0.00039254
290    0.432703    0.856826   -0.547094  0.000318959
300    0.435253    0.857469    -1.36723  3.41237e-06
310    0.432635    0.856808    -1.36707  0.000452408
320    0.426205    0.855186    -2.10763  -6.00696e-05
330    0.433836    0.857112    -1.50017  -1.15633e-06
340    0.426228    0.855192   -0.706283  0.000660746
350    0.420621    0.853776    -0.99681  0.000327839
360    0.419672    0.853537    -1.52577  0.000116266
370    0.418296     0.85319    -1.20897  0.000121793
380    0.417236    0.852922    -1.12946  0.000335008
390    0.411595    0.851499    -1.76387  -1.09106e-05
400    0.417454    0.852977    -1.89702  -3.16352e-05
410    0.412228    0.851658    -1.71127  0.000432263
420    0.408809    0.850795    -1.05048  0.00018198
430    0.408589     0.85074    -1.71119  0.000123741
440    0.406334    0.850171    -1.89575  0.000177412
450     0.40504    0.849844    -1.81715  6.51836e-05
460     0.40503    0.849842    -2.98133  0.000215754
470    0.400725    0.848755    -1.71145  0.000495438
480    0.395121    0.847341    -1.26152  -9.00164e-05
490    0.402526     0.84921    -1.05179  -8.94845e-05
500    0.396911    0.847793   -0.945882  0.000270887
510    0.397108    0.847842    -1.34217  0.000320283
520    0.390505    0.846176    -1.28855  0.000185536
530    0.393397    0.846906    -1.07732  0.000170219
540    0.387101    0.845317    -1.65933  2.38657e-05
550     0.39292    0.846785    -1.79173  -4.58643e-05
560    0.388018    0.845548    -1.28889  0.000241047
570    0.388099    0.845569    -1.79168  0.000187437
580     0.38427    0.844602    -1.81873  0.000416026
590    0.379778    0.843469    -2.02949  -6.75216e-05
600     0.38562    0.844943    -1.92454  -0.000105284
610    0.381884       0.844    -1.95061  6.30811e-05
620    0.384358    0.844625     -1.1846  0.000189184
630      0.3781    0.843045   -0.549031  0.00035311
640    0.377296    0.842842   -0.628897  0.000272022
650     0.37266    0.841672    -1.39591  0.000140935
660    0.374478    0.842131    -1.66068  0.000289638
670    0.366867     0.84021    -2.00404  0.000125076
680    0.371976    0.841499    -1.87263  3.81663e-05
690    0.366104    0.840017   -0.285349  0.000219119
700    0.367594    0.840393  0.00553939  0.000109819
710    0.363907    0.839463   -0.920147  0.000506823
720    0.357457    0.837835    -0.39046  -0.000165662
730    0.367221    0.840299    0.533909  -0.000181675
740    0.361091    0.838752   -0.840874  0.000431047
750      0.3586    0.838124    -1.58133  0.000238296
760    0.356325    0.837549   -0.866894  -0.000176868
770    0.362137    0.839016    -1.42358  7.85023e-05
780    0.354755    0.837153    -1.52846  0.000488991
790    0.352357    0.836548    -2.32157  -6.02692e-05
800     0.35596    0.837457    -1.79315  -0.000110056
810    0.354558    0.837104   -0.285788  -2.14562e-05
820    0.356389    0.837566    -1.05337  0.00011812
830    0.352196    0.836507   -0.576496  0.000280039
840    0.350788    0.836152    -1.60771  0.000241651
850    0.347363    0.835288   -0.946683  0.000146933
860     0.34785     0.83541   -0.841288  9.70647e-05
870    0.345422    0.834798   -0.920714  0.000226074
880    0.343328    0.834269    -1.07895  0.000277147
890    0.339879    0.833399    -1.13148  5.28544e-05
900    0.342271    0.834003    -2.16321  0.000109489
910    0.337689    0.832846    -1.34304  0.00018262
920    0.338619    0.833081     -1.0789  -0.000211526
930     0.34192    0.833914    0.269427  0.000273815
940    0.333143    0.831699    -0.81501  0.00046594
950    0.332601    0.831562    -1.89906  0.000156145
960     0.33002    0.830911    -1.15889  9.41142e-05
970    0.330718    0.831087   -0.629671  0.000134169
980    0.327336    0.830233    -1.23827  0.000338633
990    0.323946    0.829378      -1.582  2.10896e-05
1000    0.326914    0.830127   -0.947742  0.000220689
1010    0.319532    0.828264    -1.87219  0.00024903
1020    0.321934     0.82887    -1.39686  0.000141796
1030    0.316696    0.827548   -0.999522  0.000118889
1040    0.319556     0.82827    -1.50272  -0.000183469
1050    0.320365    0.828474    -1.44986  0.000416923
1060    0.311218    0.826165   -0.868262  0.000360066
1070    0.313164    0.826657   -0.233026  0.000172192
1080    0.307774    0.825296  -0.0746366  0.000459316
1090    0.303978    0.824338    -1.76695  6.37785e-05
1100    0.306498    0.824974    -1.23829  0.000144772
1110    0.301082    0.823607   -0.867436  0.000277205
1120    0.300954    0.823575    -1.21184   2.435e-05
1130    0.300595    0.823484   -0.444797  0.000214939
1140    0.296655     0.82249    -1.34426  0.000325076
1150    0.294094    0.821844   -0.815165  -9.66176e-05
1160    0.298588    0.822978   -0.366222  7.15837e-05
1170    0.292662    0.821482   -0.814726  0.000506197
1180    0.288464    0.820423    0.454663  -0.000142978
1190    0.295522    0.822204    -1.13262  -0.000177565
1200    0.292015    0.821319   -0.445443  0.000316197
1210    0.289198    0.820608   -0.207704  0.000212128
1220    0.287773    0.820248   -0.603704  -0.000178237
1230    0.292763    0.821508   -0.710312  -0.000149083
1240    0.290754    0.821001    -1.47701  0.000265372
1250    0.287455    0.820168    -1.07993  0.000318594
1260    0.284382    0.819393   -0.445727  -4.40449e-05
1270    0.288336     0.82039   -0.763643  -3.19779e-05
1280    0.285022    0.819554    -1.05402  0.000366984
1290    0.280996    0.818538   0.0304741  0.00038536
1300    0.277315    0.817609    -1.10672  0.000203781
1310    0.276921    0.817509    -0.73659  -6.66842e-05
1320    0.278648    0.817945    -0.97482  0.000139789
1330    0.274125    0.816804   -0.419088  0.000228378
1340    0.274081    0.816793    -1.63574  7.5385e-05
1350    0.272617    0.816423   -0.630807  -9.62526e-05
1360    0.276006    0.817279   -0.736745  3.42101e-05
1370    0.271933    0.816251    -1.26586  2.20239e-05
1380    0.275565    0.817167   -0.763591  -0.000149781
1390    0.274929    0.817007    -1.23959  0.000206518
1400    0.271435    0.816125    -1.53102  0.000153251
1410    0.271864    0.816233    -0.79023  0.000141928
1420    0.268596    0.815409    -1.76865  2.85774e-05
1430    0.271292    0.816089    -1.29292  5.2914e-05
1440    0.267538    0.815141    -1.00133  0.000363855
1450    0.264015    0.814252    -2.66793  0.000238886
1460     0.26276    0.813936    -1.55716  2.36765e-05
1470    0.263541    0.814133    -1.66302  7.78765e-05
1480    0.261203    0.813543    -1.47784  -6.34044e-06
1490    0.263668    0.814165    -1.84891  0.000186574
1500    0.257471    0.812601    -1.95371  0.000204594
1510    0.259576    0.813132    -2.80035  2.45973e-05
1520    0.256979    0.812477    -2.13884  0.000235792
1530    0.254861    0.811942    -2.21886  -6.60688e-05
1540    0.258301     0.81281    -2.13938  0.000261052
1550    0.249639    0.810624    -2.19178  0.000218576
1560    0.253929    0.811707    -2.48332  0.000110646
1570    0.247427    0.810066    -2.48316  0.000511226
1580    0.243705    0.809126    -1.31873  2.59317e-05
1590    0.246908    0.809935    -2.45704  -0.000229356
1600    0.248292    0.810284    -2.64178  3.21895e-05
1610    0.246264    0.809772    -2.72095  -8.39233e-05
1620     0.24997    0.810708     -1.5314  0.000154585
1630    0.243172    0.808992    -1.55776  0.000650036
1640     0.23697    0.807427    -1.55727  0.000228861
1650    0.238595    0.807837    -1.13453  -0.000113669
1660    0.239243       0.808    -1.21388  -0.00016931
1670    0.241981    0.808691    -1.50471  -0.000144938
1680    0.242142    0.808732    -1.26713  0.000476403
1690    0.232453    0.806287    -1.34578  0.000254993
1700    0.237042    0.807445    -1.34591  -0.000292757
1710    0.238309    0.807764    -1.71669  0.000231542
1720    0.232411    0.806276    -2.00789  0.000287325
1730    0.232562    0.806314    -1.31984  0.000102557
1740     0.23036    0.805758    -1.71672  0.000245322
1750    0.227656    0.805076   -0.870432  0.000177611
1760    0.226808    0.804862    -2.08706  0.000203012
1770    0.223595    0.804051    -2.21907  8.50692e-05
1780    0.225106    0.804433    -1.45218  -0.000201052
1790    0.227616    0.805066    -2.24578  1.06506e-05
1800    0.224893    0.804379   -0.393998  0.000178947
1810    0.224037    0.804163    -1.55871  0.000135751
1820    0.222178    0.803694    -2.03386  0.000280098
1830    0.218435    0.802749    -1.74299  4.23923e-05
1840     0.22133     0.80348     -2.3779  -5.75662e-05
1850    0.219587    0.803039    -2.82774  0.000218611
1860    0.216958    0.802376    -1.71692   9.951e-05
1870    0.217597    0.802537    -2.43066  0.000295296
1880    0.211052    0.800886    -2.56272  0.00020097
1890    0.213577    0.801523    -2.85392  -0.000252797
1900    0.216108    0.802162    -3.70028  0.00025249
1910    0.208527    0.800248    -1.92836  0.000258808
1920    0.210932    0.800855    -3.06574  -0.000291459
1930    0.214357    0.801719    -1.50567  -8.25889e-05
1940    0.212584    0.801272    -2.32513  0.000202823
1950      0.2103    0.800696    -2.56354  0.000107847
1960    0.210427    0.800728    -3.06605  0.000140108
1970    0.207498    0.799989    -2.21971  5.09538e-05
1980    0.209408    0.800471    -3.14553  5.78262e-05
1990    0.206341    0.799697    -3.54184  0.000121569
2000    0.206976    0.799857    -2.16713  0.000211775
2010    0.202106    0.798628    -3.06589  0.000147831
2020     0.20402    0.799111    -2.61656  -6.96704e-05
2030    0.203499    0.798979    -3.19863  0.000122879
2040    0.201562     0.79849    -2.82836  -8.92252e-05
2050    0.205284     0.79943    -2.66982  0.000142801
2060    0.198706     0.79777    -2.37844  0.000213427
2070    0.201015    0.798352    -3.14586  -6.31757e-05
2080     0.19997    0.798089    -1.84976  0.000234009
2090    0.196335    0.797171    -2.61651  0.000163194
2100    0.196706    0.797265    -2.96078    6.66e-05
2110    0.195003    0.796835    -2.61718  0.000118545
2120    0.194335    0.796666    -3.46334  8.3603e-06
2130    0.194836    0.796793    -2.37888  4.10229e-05
2140    0.193515    0.796459    -2.35255  4.10467e-05
2150    0.194015    0.796586     -2.8811  0.000165249
2160     0.19021    0.795625     -2.3256  0.00019151
2170    0.190185    0.795619    -2.08747  -9.56371e-05
2180    0.192122    0.796108    -2.80216  2.87421e-05
2190     0.18961    0.795474    -2.59049  6.13213e-05
2200    0.190896    0.795798    -2.80242  0.000298177
2210    0.183646    0.793969    -2.16804  0.000318122
2220    0.184533    0.794193    -3.06675  3.36543e-06
2230    0.183579    0.793952    -3.62178  0.000247247
2240    0.179588    0.792945    -3.48944  0.000181627
2250    0.179947    0.793035    -2.80183  7.66493e-05
2260    0.178056    0.792558    -3.06669  9.6605e-05
2270    0.178014    0.792547    -3.59568  -0.000141715
2280     0.18089    0.793273    -3.78071  0.000229735
2290     0.17342    0.791388    -2.88154  0.000362557
2300    0.173639    0.791443    -3.27826  -0.000341207
2310    0.180244     0.79311    -3.17305  -0.000141832
2320    0.176475    0.792159    -3.96634  0.000243987
2330    0.175364    0.791879    -3.46368  3.7764e-05
2340     0.17572    0.791968     -3.0407  0.000104883
2350    0.173266    0.791349     -3.7542  -2.19643e-06
2360    0.175764    0.791979    -3.91373  0.000252891
2370    0.168209    0.790073    -3.78156  0.000212612
2380    0.171512    0.790906    -3.96652  -0.000115499
2390    0.170519    0.790656    -4.09847  0.000139718
2400    0.168717    0.790201    -4.38975  0.000295012
2410    0.164618    0.789167    -3.78097  -0.000217324
2420    0.173064    0.791298     -3.7288  -0.000129174
2430    0.167202    0.789819    -3.62312  0.000316185
2440     0.16674    0.789702      -4.231  0.000222485
2450    0.162752    0.788696    -3.62315  -4.85331e-05
2460    0.167711    0.789947     -3.5439  -0.000177199
2470    0.166296     0.78959    -3.67638  0.000243728
2480    0.162836    0.788717    -3.70245  0.000394133
2490    0.158413    0.787601    -3.83477  0.000204122
2500    0.158754    0.787686     -3.7026  0.00022546
2510    0.153904    0.786463    -4.83988  0.000143639
2520    0.155881    0.786961    -4.07312  -0.000355531
2530    0.161015    0.788257    -4.31107  0.000130662
2540    0.153268    0.786302    -4.28498  0.00045986
2550    0.151818    0.785936    -3.86138  -2.6723e-05
2560    0.153802    0.786437    -4.33794  -1.28478e-05
2570    0.152075    0.786001     -3.9938  0.000297174
2580    0.147859    0.784937    -4.89259  0.000242618
2590    0.147222    0.784776    -4.78712  -4.69513e-05
2600    0.148798    0.785174    -4.57594  -6.08139e-05
2610    0.148439    0.785083    -4.15322  2.21886e-05
2620    0.148354    0.785062    -4.39138  0.000480418
2630     0.13883    0.782658    -4.20565  0.000411492
2640    0.140124    0.782985    -3.99419  -0.000394039
2650    0.146711    0.784647    -4.15294  0.000323258
2660    0.133659    0.781353     -4.1264  0.000685698
2670    0.132997    0.781186    -4.02057  -0.000227255
2680    0.138204      0.7825    -4.73541  -0.000241461
2690    0.137826    0.782405    -4.07403  0.000409342
2700    0.130017    0.780434    -4.54948  0.000150239
2710    0.134821    0.781646    -4.89386  -0.000235037
2720    0.134718     0.78162    -4.20661  0.00010891
2730    0.132643    0.781097    -4.52382  0.00034867
2740    0.127745     0.77986    -4.49713  0.000187106
2750    0.128901    0.780152    -4.39202  0.000103195
2760    0.125681    0.779339    -4.65599  -0.000286073
2770    0.134623    0.781596    -4.94716  -7.33547e-05
2780    0.127148     0.77971    -4.36536  0.000493029
2790    0.124762    0.779108    -4.55021  -0.000144843
2800    0.130045    0.780441    -4.04835  0.000296465
2810    0.118833    0.777611    -4.39153  0.00056695
2820    0.118706    0.777579    -4.20704  -1.58213e-06
2830    0.118864    0.777619    -5.47649  0.000405753
2840    0.110591    0.775531    -4.65625  0.000205976
2850    0.114745    0.776579    -4.76265  -2.19166e-05
2860    0.111029    0.775642    -5.02695  0.000372122
2870    0.107302    0.774701    -4.52426  -5.79797e-05
2880    0.112189    0.775934    -5.07994  -0.00011511
2890    0.109605    0.775282    -5.10617  0.000121899
2900    0.109751    0.775319    -5.10632  -0.000202327
2910    0.113651    0.776303    -4.65736  0.000187531
2920       0.106    0.774372    -5.53002  0.000339283
2930    0.106865    0.774591    -4.84233  -0.000108438
2940    0.108169     0.77492    -5.58302  9.44208e-05
2950    0.104977    0.774114    -4.92166  0.000167032
2960    0.104828    0.774077    -4.81626  0.000167764
2970    0.101622    0.773268    -4.92158  0.00028468
2980   0.0991344     0.77264    -5.55645  0.000205256
2990   0.0975167    0.772231    -5.66257  0.000118133
3000   0.0967718    0.772043    -5.23934  -6.44624e-05
3010   0.0988059    0.772557    -4.86964  7.48422e-05
3020   0.0952749    0.771666    -5.26603  0.000177446
3030    0.095257    0.771661    -5.87385  0.000259079
3040   0.0900934    0.770358    -5.53046  0.000163737
3050   0.0919823    0.770835    -5.84781  0.000260567
3060    0.084882    0.769043    -5.84755  0.000290195
3070   0.0861784     0.76937    -5.74216  3.28396e-05
3080   0.0842252    0.768877    -5.71588  -0.000174601
3090   0.0896704    0.770251      -5.954  -0.00010042
3100   0.0862336    0.769384    -5.39918  0.000774887
3110   0.0741726     0.76634    -5.61004  0.000545955
3120   0.0753145    0.766628    -5.61004  -0.000136684
3130   0.0769063     0.76703     -5.4515  -0.000114555
3140   0.0776056    0.767206    -5.87465  3.44101e-05
3150   0.0762181    0.766856    -5.98052  0.000333449
3160   0.0709366    0.765523    -6.08622  0.000483996
3170   0.0665382    0.764413    -6.13909  -9.96757e-05
3180   0.0729301    0.766026    -6.35104  -0.000204358
3190   0.0706254    0.765445    -5.82254  0.000102947
3200   0.0708712    0.765507    -5.58402  0.000359676
3210   0.0634318    0.763629    -6.29802  0.000344986
3220   0.0639715    0.763765    -6.11286  -0.000235344
3230   0.0681387    0.764817    -6.58955  -8.63187e-06
3240   0.0641441    0.763809    -5.71665  0.000437848
3250   0.0593818    0.762607    -6.03372  9.75028e-05
3260   0.0621941    0.763317    -6.37796  0.000182052
3270   0.0557407    0.761688    -5.79569  0.000417904
3280    0.053836    0.761207     -6.7481  -3.04069e-05
3290   0.0563489    0.761842    -5.71652  7.67319e-05
3300   0.0523014     0.76082    -6.08715  3.06431e-05
3310    0.055736    0.761687    -6.51041  -7.59879e-05
3320   0.0538211    0.761204     -5.7966  0.000483323
3330   0.0460695    0.759247    -6.27218  0.00036917
3340   0.0464377     0.75934    -5.90194  6.31165e-05
3350   0.0448072    0.758929    -6.21936  0.000301979
3360   0.0403981    0.757816    -6.58953  0.000140663
3370   0.0419939    0.758219    -6.69557  2.44435e-06
3380   0.0403492    0.757804    -6.66926  0.00014926
3390   0.0390087    0.757465     -6.4315  -0.000113858
3400   0.0426264    0.758378    -6.77585  0.000111378
3410   0.0367812    0.756903    -6.40496  0.000383127
3420   0.0349639    0.756444    -6.35209  0.000298874
3430   0.0308037    0.755394    -6.66988  0.000260673
3440   0.0297504    0.755129     -6.6697  -1.17023e-05
3450   0.0310378    0.755454    -7.09311  0.000207488
3460   0.0256006    0.754081    -6.37897  1.17023e-05
3470   0.0308037    0.755394    -6.98689  0.000216615
3480   0.0212683    0.752988    -7.22479  0.000436195
3490   0.0220798    0.753193    -6.74913  9.1953e-05
3500   0.0194293    0.752524    -6.35259  0.000494069
3510   0.0121984    0.750699    -6.82812  0.000100479
3520   0.0174197    0.752017    -6.69606  -3.27096e-05
3530   0.0128526    0.750864    -6.93418  4.56281e-05
3540   0.0165071    0.751786    -6.66991  -0.00021534
3550   0.0171594    0.751951    -6.98767  3.79998e-05
3560   0.0157471    0.751594    -7.27848  0.000220961
3570   0.0127402    0.750836      -6.988  0.000125855
3580     0.01323    0.750959    -7.54314  0.000302156
3590  0.00669709     0.74931    -7.56919  0.000350536
3600  0.00621931     0.74919    -6.69683  0.000231967
3610  0.00205775     0.74814    -6.85519  0.000200308
3620  0.00221315    0.748179    -6.88163  -0.000127969
3630  0.00461713    0.748785    -6.74977  0.00036251
3640  -0.00503704    0.746349     -6.7499  0.000338468
3650  -0.00215222    0.747077    -6.24753  1.62958e-06
3660  -0.00506963    0.746341    -6.43258  -6.90798e-06
3670  -0.00201406    0.747112    -6.98808  0.000268797
3680  -0.0104456    0.744984    -6.51175  -9.61096e-05
3690  -9.18703e-05    0.747597    -6.19505  -0.000338609
3700  -0.0036734    0.746693    -6.38016  0.000139104
3710  -0.00287396    0.746895    -5.79864  1.40521e-06
3720  -0.0037015    0.746686    -6.59146  8.29194e-05
3730  -0.00453235    0.746476    -6.22207  0.000197592
3740  -0.00765334    0.745689    -6.85638  0.000558201
3750  -0.0156964    0.743659    -6.19518  0.000330048
3760  -0.0142543    0.744023    -6.06255  -0.000127993
3770  -0.0131365    0.744305    -6.59193  -4.62422e-05
3780  -0.0133295    0.744256    -6.19528  0.000200674
3790    -0.01715    0.743292    -5.77233  8.55409e-05
3800  -0.0150403    0.743824    -6.77711  0.000168933
3810  -0.0205286    0.742439     -6.5396  8.60842e-05
3820   -0.016762     0.74339     -6.0904  -5.38587e-05
3830  -0.0194515    0.742711    -7.86137  0.000285967
3840  -0.0224813    0.741946    -7.14774  0.000336791
3850  -0.0261873    0.741011    -6.56591  0.000271171
3860  -0.0279047    0.740578     -6.7505  -1.99682e-05
3870  -0.0257879    0.741112    -6.61913  -6.98238e-05
3880  -0.0265082     0.74093    -6.06322  0.000130744
3890  -0.0284028    0.740452    -6.51273  8.07585e-05
3900  -0.0281234    0.740522    -6.53968  9.78926e-05
3910  -0.0303607    0.739958    -6.27489  0.000350441
3920  -0.0351322    0.738754     -6.5658  0.000182961
3930  -0.0340199    0.739034    -5.82587  -0.000153712
3940   -0.032058    0.739529     -6.2752  -8.65683e-05
3950  -0.0322885    0.739471     -6.0109  -7.00835e-05
3960  -0.0306563    0.739883    -6.09022  0.000269282
3970  -0.0376741    0.738112    -5.98444  0.000303444
3980  -0.0367252    0.738352    -6.83034  -1.83977e-05
3990  -0.0373062    0.738205    -5.79951  -5.26778e-05
4000  -0.0356717    0.738617    -6.67218  0.000177907
4010  -0.0408643    0.737307    -5.85241  0.000118062
4020  -0.0380329    0.738021    -6.59306  -6.08139e-05
4030  -0.0396481    0.737614    -5.79977  0.000384981
4040  -0.0457325    0.736078    -6.19551  0.000609497
4050   -0.051838    0.734537    -5.90499  0.00012053
4060  -0.0481431     0.73547    -6.40749  -0.000309619
4070  -0.0456456      0.7361    -6.69903  0.000121392
4080  -0.0505709    0.734857    -6.69885  0.000103844
4090  -0.0477225    0.735576    -5.85251  0.000104907
4100  -0.0526691    0.734328    -6.19621  0.00042591
4110  -0.0562407    0.733426    -6.27548  -5.10838e-05
4120  -0.0516474    0.734585    -5.93178  -0.000102781
4130  -0.0541851    0.733945    -6.22254  0.000105734
4140  -0.0537621    0.734052    -5.93227  8.00971e-05
4150   -0.055787    0.733541    -6.32843  0.000141525
4160  -0.0565926    0.733337    -6.35532  0.000247436
4170  -0.0607357    0.732292    -5.98478  -0.000244342
4180  -0.0517057    0.734571    -6.14376  9.94276e-05
4190  -0.0627243     0.73179    -6.43444  0.000239252
4200  -0.0564908    0.733363    -6.11776  -0.000359428
4210  -0.0555357    0.733604    -5.85305  0.000603723
4220  -0.0685652    0.730316    -6.22308  0.000179064
4230   -0.059117      0.7327    -6.03834  -0.000218115
4240  -0.0642029    0.731417    -6.35558  0.000242512
4250  -0.0639672    0.731476    -5.37698  0.000119065
4260  -0.0665842    0.730816    -6.09105  0.000208562
4270  -0.0681385    0.730423    -5.37682  0.000128831
4280  -0.0691609    0.730165    -6.85816  -0.000264959
4290  -0.0628393    0.731761    -6.19711  0.000201536
4300  -0.0731916    0.729148    -6.54066  9.2921e-05
4310  -0.0646977    0.731292    -6.56761  -5.82397e-05
4320  -0.0720268    0.729442    -6.85842  0.000571804
4330  -0.0761338    0.728406    -6.11771  -3.15405e-05
4340   -0.071396    0.729601    -6.83155  -0.000202941
4350   -0.072075     0.72943    -6.69988  0.000140569
4360  -0.0742074    0.728892    -6.48811  5.01033e-05
4370   -0.073077    0.729177    -6.38258  7.79126e-05
4380  -0.0757656    0.728499    -6.54128  0.000305794
4390  -0.0791929    0.727634    -6.51475  -0.000150004
4400  -0.0727655    0.729256    -6.38248  0.000134109
4410  -0.0818751    0.726957    -6.77925  0.00029826
4420  -0.0787307     0.72775    -5.51018  -4.86631e-05
4430  -0.0809018    0.727202    -6.80582  0.000125525
4440  -0.0812412    0.727117    -6.59415  -0.000168838
4450  -0.0775251    0.728054    -6.35677  -2.13381e-05
4460  -0.0808145    0.727224    -6.83261  0.000449822
4470  -0.0865215    0.725784    -6.64743  0.000340015
4480  -0.0876148    0.725508    -6.46268  -1.1206e-05
4490  -0.0862974    0.725841    -6.96457  -0.000178486
4500   -0.084045    0.726409    -6.78003  0.00034286
4510  -0.0931546     0.72411    -6.77951  0.000651193
4520  -0.0970689    0.723122     -6.4094  -0.000112972
4530  -0.0908952     0.72468     -6.5419  -0.00045921
4540  -0.0878847     0.72544    -6.72714  -0.000113799
4550  -0.0886192    0.725255    -6.14505  0.000261712
4560  -0.0931189    0.724119    -6.25109  0.000281137
4570  -0.0942419    0.723835    -5.72226  0.000197474
4580  -0.0970684    0.723122    -5.96012  -3.83656e-05
4590  -0.0934746    0.724029     -6.1719  9.50582e-06
4600  -0.0972585    0.723074     -5.8808  0.000227149
4610  -0.0980176    0.722883    -6.27763  -0.000313847
4620  -0.0909816    0.724658     -6.9656  5.73657e-05
4630  -0.0991649    0.722593    -6.40992  0.000485744
4640   -0.100696    0.722206    -6.70086  0.000105592
4650   -0.101277     0.72206    -6.38375  0.000259327
4660   -0.105883    0.720897    -6.04004  0.000135184
4670    -0.10398    0.721378    -6.38359  0.000222874
4680    -0.11034    0.719773    -6.91273  0.000222909
4690   -0.108439    0.720253    -6.67453  -3.60984e-05
4700   -0.109619    0.719955    -6.43661  0.000243905
4710   -0.113317    0.719021    -6.48966  0.000302818
4720   -0.115675    0.718426    -6.09288  -8.42419e-05
4730   -0.111632    0.719447    -6.04033  7.15714e-05
4740   -0.117106    0.718065    -6.33114  0.000246396
4750    -0.11656    0.718203    -6.35765  0.000101482
4760   -0.119136    0.717553     -6.7807  0.000189586
4770   -0.120352    0.717246    -6.59562  0.000200261
4780   -0.123141    0.716542    -6.78067  0.000132173
4790   -0.122995    0.716579    -6.62254  -0.000231105
4800   -0.118519    0.717708    -7.17807  8.38522e-05
4810   -0.124672    0.716156    -6.80747  0.000458466
4820   -0.127688    0.715394     -6.5957  0.000351705
4830   -0.131706     0.71438    -6.91279  0.000144772
4840   -0.130584    0.714664    -7.30979  -0.000271454
4850   -0.126277     0.71575    -7.01924  0.000145859
4860   -0.133501    0.713927    -6.67518  0.000314898
4870   -0.132575    0.714161    -6.78132  -0.000252702
4880   -0.128447    0.715203    -6.80799  7.70621e-05
4890   -0.134116    0.713772    -6.22621  0.000156616
4900   -0.131579    0.714412    -7.07252  0.000268573
4910   -0.139488    0.712416    -6.88684  0.000601042
4920     -0.1436    0.711378    -7.31023  -0.00031452
4930   -0.133197    0.714004    -7.15207  -0.000213251
4940   -0.139335    0.712455    -6.62301  0.000442808
4950   -0.142053    0.711769    -6.38498  9.9735e-05
4960    -0.14133    0.711951    -6.54363  -1.29864e-06
4970   -0.142027    0.711775    -6.86108  5.98222e-05
4980   -0.142526    0.711649    -6.51725  0.000223511
4990   -0.146498    0.710647    -6.96694  0.000387201
