Time   Number   
ps   
0          41          49
10          40          46
20          36          48
30          38          40
40          37          49
50          40          48
60          42          50
70          36          48
80          38          44
90          35          37
100          41          47
110          37          41
120          38          46
130          39          49
140          41          49
150          40          46
160          38          48
170          38          40
180          37          45
190          45          47
200          40          46
210          39          47
220          37          45
230          41          45
240          39          45
250          37          43
260          39          49
270          41          49
280          40          42
290          40          42
300          36          44
310          38          44
320          42          48
330          43          49
340          38          44
350          41          51
360          41          45
370          38          48
380          39          41
390          36          42
400          39          51
410          37          41
420          38          42
430          40          44
440          40          44
450          40          42
460          38          48
470          40          52
480          37          49
490          41          49
500          38          48
510          38          46
520          36          46
530          40          50
540          38          44
550          36          50
560          39          49
570          37          49
580          40          46
590          39          45
600          38          50
610          36          48
620          36          44
630          33          43
640          40          52
650          42          42
660          36          48
670          36          44
680          36          42
690          41          47
700          35          45
710          42          44
720          39          43
730          35          47
740          40          48
750          38          48
760          37          49
770          40          44
780          38          44
790          36          42
800          34          42
810          41          41
820          37          39
830          39          47
840          35          43
850          40          42
860          39          45
870          41          45
880          37          45
890          36          46
900          39          43
910          38          46
920          36          40
930          39          47
940          39          51
950          42          46
960          41          47
970          40          48
980          41          49
990          40          50
1000          37          43
1010          38          48
1020          37          47
1030          38          48
1040          37          45
1050          42          44
1060          40          44
1070          38          42
1080          39          49
1090          38          46
1100          42          48
1110          39          45
1120          38          46
1130          40          48
1140          39          43
1150          36          46
1160          36          42
1170          33          47
1180          37          45
1190          43          45
1200          38          44
1210          36          48
1220          39          51
1230          38          48
1240          37          47
1250          40          44
1260          40          44
1270          39          43
1280          36          50
1290          38          44
1300          37          47
1310          39          43
1320          41          47
1330          37          43
1340          38          40
1350          41          53
1360          41          45
1370          40          48
1380          44          50
1390          42          48
1400          42          48
1410          43          51
1420          45          51
1430          40          42
1440          43          45
1450          40          44
1460          38          50
1470          44          48
1480          39          41
1490          44          46
1500          44          50
1510          46          46
1520          43          45
1530          42          52
1540          43          45
1550          43          47
1560          41          47
1570          45          51
1580          41          47
1590          40          50
1600          41          45
1610          42          50
1620          41          45
1630          42          44
1640          39          45
1650          39          47
1660          36          46
1670          39          45
1680          40          48
1690          41          41
1700          38          44
1710          38          42
1720          41          45
1730          42          42
1740          41          47
1750          41          41
1760          39          45
1770          36          44
1780          39          47
1790          43          49
1800          40          48
1810          43          55
1820          41          47
1830          37          47
1840          40          46
1850          39          51
1860          41          47
1870          41          47
1880          43          45
1890          38          56
1900          38          44
1910          43          49
1920          38          44
1930          41          47
1940          41          47
1950          36          46
1960          43          47
1970          39          43
1980          44          56
1990          45          51
2000          44          46
2010          39          49
2020          39          39
2030          42          54
2040          38          46
2050          37          39
2060          41          47
2070          40          40
2080          41          47
2090          42          48
2100          42          46
2110          41          47
2120          40          42
2130          42          48
2140          42          44
2150          37          45
2160          40          48
2170          42          42
2180          42          50
2190          37          43
2200          39          45
2210          43          47
2220          37          39
2230          45          51
2240          41          47
2250          41          49
2260          44          44
2270          41          49
2280          44          52
2290          43          47
2300          40          50
2310          43          49
2320          44          48
2330          41          47
2340          41          47
2350          43          49
2360          41          47
2370          41          49
2380          37          47
2390          40          44
2400          41          45
2410          43          49
2420          40          44
2430          40          44
2440          39          43
2450          44          46
2460          40          48
2470          41          51
2480          40          44
2490          40          42
2500          39          41
2510          37          43
2520          38          50
2530          45          47
2540          42          46
2550          40          46
2560          40          50
2570          36          54
2580          37          39
2590          38          46
2600          40          48
2610          40          44
2620          39          41
2630          41          47
2640          37          51
2650          42          46
2660          41          49
2670          44          48
2680          37          47
2690          37          49
2700          41          51
2710          38          50
2720          41          43
2730          39          51
2740          38          46
2750          38          46
2760          38          44
2770          39          45
2780          38          48
2790          41          45
2800          36          52
2810          42          44
2820          45          49
2830          45          49
2840          40          52
2850          40          48
2860          40          48
2870          41          49
2880          39          51
2890          39          43
2900          41          49
2910          40          42
2920          43          45
2930          41          47
2940          39          51
2950          39          43
2960          39          47
2970          42          48
2980          42          44
2990          44          50
3000          41          45
3010          42          44
3020          42          46
3030          43          47
3040          43          53
3050          40          50
3060          41          47
3070          43          49
3080          37          47
3090          42          56
3100          40          48
3110          41          47
3120          40          52
3130          43          49
3140          44          48
3150          42          48
3160          43          45
3170          41          51
3180          45          49
3190          40          46
3200          44          52
3210          41          55
3220          39          49
3230          43          45
3240          44          48
3250          44          50
3260          44          50
3270          46          50
3280          40          46
3290          42          46
3300          42          50
3310          40          48
3320          43          49
3330          44          46
3340          43          49
3350          42          52
3360          40          42
3370          42          52
3380          42          48
3390          43          49
3400          41          49
3410          37          45
3420          40          52
3430          44          50
3440          39          45
3450          42          54
3460          42          50
3470          42          46
3480          43          47
3490          43          49
3500          43          59
3510          41          47
3520          41          55
3530          43          51
3540          39          53
3550          47          53
3560          42          48
3570          45          51
3580          39          47
3590          37          47
3600          43          49
3610          42          54
3620          42          50
3630          42          52
3640          41          55
3650          39          47
3660          39          53
3670          38          48
3680          42          48
3690          40          52
3700          40          50
3710          41          49
3720          42          48
3730          44          52
3740          41          49
3750          44          54
3760          42          46
3770          43          57
3780          42          48
3790          42          54
3800          43          57
3810          41          47
3820          41          53
3830          44          52
3840          41          43
3850          40          50
3860          44          44
3870          39          45
3880          43          47
3890          43          47
3900          41          49
3910          38          42
3920          39          45
3930          41          47
3940          41          47
3950          40          44
3960          36          48
3970          39          47
3980          42          46
3990          41          51
4000          38          44
4010          38          42
4020          39          47
4030          40          44
4040          47          49
4050          42          52
4060          43          43
4070          42          44
4080          38          46
4090          42          42
4100          40          42
4110          41          41
4120          38          50
4130          39          49
4140          40          44
4150          43          53
4160          39          45
4170          42          50
4180          41          43
4190          38          44
4200          38          42
4210          45          49
4220          37          45
4230          42          46
4240          38          44
4250          41          45
4260          43          45
4270          41          47
4280          43          47
4290          43          45
4300          41          49
4310          40          44
4320          43          45
4330          38          46
4340          38          50
4350          43          49
4360          38          42
4370          35          39
4380          39          43
4390          36          48
4400          40          48
4410          41          45
4420          42          46
4430          42          44
4440          39          47
4450          41          49
4460          39          45
4470          39          53
4480          40          50
4490          37          41
4500          41          43
4510          37          43
4520          38          50
4530          40          46
4540          39          53
4550          42          44
4560          40          42
4570          40          44
4580          43          49
4590          42          50
4600          46          50
4610          38          42
4620          41          49
4630          40          48
4640          40          44
4650          39          45
4660          40          48
4670          39          47
4680          42          46
4690          38          46
4700          41          49
4710          41          47
4720          41          47
4730          43          47
4740          40          44
4750          38          46
4760          42          50
4770          40          40
4780          41          45
4790          39          45
4800          34          40
4810          40          50
4820          39          51
4830          36          56
4840          37          41
4850          41          45
4860          40          46
4870          41          47
4880          35          45
4890          39          41
4900          41          47
4910          35          43
4920          38          48
4930          39          47
4940          40          48
4950          41          47
4960          43          47
4970          40          48
4980          40          50
4990          42          50
5000          40          46
5010          36          46
5020          34          40
5030          42          52
5040          39          47
5050          40          54
5060          39          47
5070          45          53
5080          34          48
5090          36          46
5100          37          49
5110          36          50
5120          36          44
5130          41          47
5140          39          41
5150          37          45
5160          40          50
5170          40          52
5180          41          45
5190          38          44
5200          39          49
5210          43          51
5220          39          41
5230          36          50
5240          38          44
5250          38          46
5260          39          43
5270          40          44
5280          41          51
5290          39          51
5300          43          51
5310          42          52
5320          41          47
5330          39          51
5340          41          49
5350          40          50
5360          37          49
5370          43          53
5380          39          47
5390          40          54
5400          43          49
5410          38          48
5420          41          53
5430          40          54
5440          37          49
5450          39          43
5460          36          46
5470          41          47
5480          42          48
5490          39          49
5500          41          49
5510          42          46
5520          40          52
5530          41          49
5540          43          53
5550          40          52
5560          40          52
5570          41          57
5580          38          46
5590          41          51
5600          40          52
5610          40          48
5620          36          48
5630          39          55
5640          38          56
5650          37          55
5660          36          48
5670          41          51
5680          40          48
5690          39          53
5700          41          51
5710          39          55
5720          39          53
5730          42          50
5740          37          45
5750          39          49
5760          37          51
5770          40          46
5780          39          47
5790          39          47
5800          40          52
5810          38          46
5820          41          45
5830          39          49
5840          41          53
5850          41          45
5860          38          44
5870          43          49
5880          42          48
5890          39          49
5900          37          45
5910          40          46
5920          40          44
5930          38          44
5940          40          50
5950          40          52
5960          40          44
5970          35          43
5980          38          48
5990          42          44
6000          37          45
6010          37          45
6020          40          42
6030          40          44
6040          40          42
6050          35          43
6060          35          43
6070          35          39
6080          34          44
6090          39          39
6100          38          44
6110          38          40
6120          41          45
6130          37          41
6140          37          49
6150          38          46
6160          38          42
6170          40          50
6180          35          45
6190          40          44
6200          38          50
6210          37          47
6220          42          42
6230          37          43
6240          37          41
6250          38          44
6260          41          47
6270          34          44
6280          38          44
6290          33          41
6300          38          42
6310          34          38
6320          36          38
6330          32          42
6340          30          40
6350          37          41
6360          40          42
6370          36          42
6380          36          46
6390          35          37
6400          35          45
6410          41          43
6420          38          42
6430          34          40
6440          37          43
6450          36          50
6460          35          45
6470          34          42
6480          41          47
6490          40          46
6500          32          46
6510          34          44
6520          38          44
6530          38          50
6540          37          39
6550          38          50
6560          35          43
6570          37          49
6580          37          39
6590          33          45
6600          36          40
6610          39          45
6620          38          46
6630          39          45
6640          35          45
6650          35          41
6660          38          46
6670          33          47
6680          36          46
6690          39          51
6700          35          45
6710          38          46
6720          41          43
6730          36          46
6740          37          45
6750          38          42
6760          38          50
6770          39          41
6780          36          40
6790          38          42
6800          38          46
6810          38          44
6820          33          47
6830          39          43
6840          37          45
6850          32          40
6860          37          45
6870          37          43
6880          39          43
6890          36          42
6900          33          41
6910          36          50
6920          33          43
6930          34          44
6940          37          45
6950          32          44
6960          37          45
6970          39          45
6980          34          42
6990          38          48
7000          36          42
7010          36          44
7020          32          44
7030          35          41
7040          39          47
7050          39          45
7060          36          46
7070          41          47
7080          39          47
7090          41          47
7100          37          45
7110          33          49
7120          38          40
7130          36          44
7140          36          44
7150          38          44
7160          39          51
7170          36          46
7180          39          39
7190          34          40
7200          38          42
7210          35          53
7220          36          46
7230          34          44
7240          36          42
7250          36          42
7260          39          51
7270          38          52
7280          36          50
7290          38          46
7300          41          49
7310          37          45
7320          38          50
7330          39          51
7340          39          47
7350          34          40
7360          39          43
7370          32          40
7380          35          43
7390          37          43
7400          38          48
7410          39          47
7420          36          46
7430          33          49
7440          36          42
7450          35          43
7460          35          43
7470          36          48
7480          33          43
7490          35          45
7500          38          42
7510          38          44
7520          34          44
7530          36          42
7540          34          46
7550          37          45
7560          35          39
7570          38          50
7580          37          41
7590          36          40
7600          36          38
7610          38          44
7620          36          42
7630          35          45
7640          37          47
7650          36          44
7660          34          44
7670          38          48
7680          36          42
7690          37          41
7700          36          48
7710          35          35
7720          34          48
7730          39          39
7740          33          45
7750          34          42
7760          36          50
7770          36          42
7780          37          37
7790          39          45
7800          35          39
7810          32          48
7820          36          46
7830          35          45
7840          34          42
7850          36          38
7860          34          40
7870          36          40
7880          37          45
7890          35          43
7900          34          38
7910          36          42
7920          38          44
7930          33          47
7940          36          44
7950          38          40
7960          34          44
7970          36          44
7980          34          40
7990          37          45
8000          34          40
8010          37          39
8020          34          36
8030          34          40
8040          32          40
8050          33          47
8060          33          41
8070          34          44
8080          32          40
8090          34          40
8100          37          43
8110          33          41
8120          36          46
8130          35          41
8140          33          41
8150          39          49
8160          35          41
8170          41          43
8180          35          45
8190          35          41
8200          39          45
8210          35          47
8220          40          42
8230          38          46
8240          35          41
8250          39          43
8260          37          43
8270          36          40
8280          34          50
8290          41          47
8300          37          49
8310          33          37
8320          36          40
8330          39          47
8340          38          42
8350          39          43
8360          38          48
8370          36          46
8380          35          41
8390          37          41
8400          36          48
8410          34          44
8420          36          42
8430          34          38
8440          41          47
8450          37          43
8460          38          44
8470          33          45
8480          38          46
8490          35          45
8500          36          46
8510          34          48
8520          34          40
8530          34          42
8540          31          41
8550          35          39
8560          34          42
8570          36          44
8580          34          46
8590          35          47
8600          38          40
8610          34          40
8620          33          45
8630          36          40
8640          38          40
8650          38          46
8660          37          43
8670          36          46
8680          35          49
8690          38          50
8700          36          44
8710          38          44
8720          33          41
8730          32          54
8740          38          44
8750          40          46
8760          36          40
8770          35          41
8780          34          36
8790          36          46
8800          36          46
8810          35          49
8820          35          47
8830          41          45
8840          38          42
8850          34          46
8860          37          41
8870          33          43
8880          36          38
8890          38          46
8900          37          43
8910          37          43
8920          39          45
8930          39          43
8940          39          43
8950          38          44
8960          38          48
8970          38          46
8980          38          50
8990          37          43
9000          37          47
9010          37          45
9020          41          47
9030          35          41
9040          37          49
9050          36          42
9060          35          49
9070          33          43
9080          38          38
9090          37          39
9100          40          42
9110          37          41
9120          37          41
9130          38          46
9140          39          43
9150          38          40
9160          40          48
9170          38          46
9180          38          40
9190          40          44
9200          36          44
9210          38          52
9220          37          43
9230          35          41
9240          36          42
9250          38          48
9260          37          47
9270          32          50
9280          37          39
9290          37          41
9300          36          38
9310          36          48
9320          38          46
9330          36          44
9340          38          44
9350          35          41
9360          35          49
9370          38          46
9380          35          47
9390          33          39
9400          41          47
9410          40          46
9420          36          46
9430          38          46
9440          37          41
9450          40          50
9460          37          49
9470          39          43
9480          36          48
9490          41          45
9500          39          51
9510          41          45
9520          36          40
9530          37          41
9540          40          48
9550          41          45
9560          38          46
9570          41          43
9580          40          46
9590          40          46
9600          36          40
9610          39          43
9620          40          48
9630          39          47
9640          39          45
9650          39          43
9660          39          47
9670          37          45
9680          38          46
9690          42          46
9700          38          44
9710          39          45
9720          39          45
9730          35          43
9740          40          50
9750          39          47
9760          40          48
9770          36          46
9780          32          40
9790          36          42
9800          42          48
9810          42          46
9820          40          46
9830          40          46
9840          37          47
9850          40          46
9860          39          45
9870          40          52
9880          40          48
9890          36          44
9900          41          47
9910          39          47
9920          37          47
9930          38          46
9940          41          51
9950          38          48
9960          37          41
9970          38          44
9980          41          45
9990          38          46
10000          36          50
