Time   C(t)   
ps   
0           1           1  3.70581e-10   0.0220698
10    0.782462    0.819653   -0.398566   0.0122146
20    0.755708    0.797472   -0.788802  0.00235935
30    0.735275    0.780533    -0.76947   0.0019141
40    0.717426    0.765735   0.0278048  0.00167145
50    0.701846    0.752819   -0.069255  0.00148336
60    0.687759     0.74114   -0.265181  0.00122648
70    0.677316    0.732483   0.0838802  0.00119679
80    0.663823    0.721296    -1.02636  0.00124885
90    0.652339    0.711776    -1.20286   0.0011124
100    0.641575    0.702852   -0.267159  0.00100457
110    0.632248    0.695119    0.938599  0.000977653
120    0.622022    0.686641      0.0432  0.00101206
130    0.612007    0.678338   -0.404994  0.000876877
140    0.604484    0.672102    -0.50329  0.000780973
150    0.596387    0.665389   -0.854444  0.000790679
160    0.588671    0.658992    -1.53698  0.00074797
170    0.581428    0.652987      -1.479  0.000765899
180    0.573353    0.646293    0.137502  0.000838715
190    0.564654    0.639081    -1.16826  0.00081816
200     0.55699    0.632727    -1.24605  0.00071443
210    0.550365    0.627235    -1.63625  0.00073708
220    0.542248    0.620506    -2.41527  0.000788999
230    0.534585    0.614153    -1.36381  0.000660169
240    0.529045     0.60956    -1.40382  0.000600475
250    0.522576    0.604196   -0.274386  0.00064519
260    0.516141    0.598862    -1.46251  0.000545126
270    0.511673    0.595158    -1.69713  0.00057945
280    0.504552    0.589254    -2.02837  0.000520271
290    0.501268    0.586531    -2.02951  0.000461173
300    0.495328    0.581608    -2.18563  0.000581591
310    0.489636    0.576888    -2.10763  0.000474988
320    0.485829    0.573732    -1.99164  0.000481959
330    0.479997    0.568897    -1.11529  0.000457938
340     0.47667    0.566139    -1.27187  0.000483969
350    0.470317    0.560872    -1.87565  0.00056216
360    0.465427    0.556818     -2.0311  0.00049434
370     0.46043    0.552676    -1.89576  0.000477418
380    0.455878    0.548902    -2.73339  0.000487998
390     0.45067    0.544584    -3.04518  0.000397043
400    0.447937    0.542319    -2.94829  0.00033578
410    0.443955    0.539017    -2.67646  0.000413032
420    0.439677     0.53547    -2.77398  0.000439036
430    0.435174    0.531737    -2.89086  0.000483119
440    0.430014     0.52746     -2.4236  0.000370003
450    0.427774    0.525602    -1.86031  0.000381787
460    0.422379    0.521129    -2.36618  0.000439011
470    0.418994    0.518323    -2.07424  0.000355665
480    0.415265    0.515232    -1.27639  0.000456494
490    0.409864    0.510754    -1.60759  0.000459775
500     0.40607    0.507609    -1.82148  0.000419748
510    0.401469    0.503794    -1.66619  0.000354077
520    0.398988    0.501738    -1.64678  0.000346442
530     0.39454     0.49805    -1.43278  0.000399196
540    0.391004    0.495119    -1.17998  0.000379431
550    0.386952    0.491759    -1.12128  0.000353473
560    0.383935    0.489258   -0.479156  0.000259434
570    0.381763    0.487457    -1.86221  0.000337966
580    0.377176    0.483654   -0.869031  0.000405595
590    0.373651    0.480732    -1.64857  0.000361335
600    0.369949    0.477663    -0.98605  0.000371878
610    0.366213    0.474566   -0.967079  0.000261414
620    0.364721    0.473329     -1.1822  0.000230251
630    0.361608    0.470748    -1.12428  0.000374036
640     0.35724    0.467127   -0.559014  0.000373539
650    0.354138    0.464555   -0.637521  0.000305623
660    0.351127    0.462059   -0.189517  0.000340705
670    0.347324    0.458906   -0.968353  0.000297099
680    0.345185    0.457133   -0.774291  0.000265817
690    0.342007    0.454498   -0.462677  0.00030947
700    0.338996    0.452002   -0.755377  0.000249635
710    0.337015    0.450359    -1.04766  0.00025398
720    0.333916    0.447791    -1.06699  0.000204958
730    0.332915    0.446961    -1.20407  0.000163399
740    0.330648    0.445082    -1.14578  0.000266594
750    0.327583     0.44254    -1.41818  0.00030188
760    0.324611    0.440076    -1.92472  0.000241674
770     0.32275    0.438533    -2.23606  0.000247222
780    0.319666    0.435977    -2.54775  0.000205314
790    0.318644    0.435129    -1.59438  0.000147294
800    0.316721    0.433535    -2.00393  0.000205019
810    0.314543     0.43173    -1.01059  0.000222929
820    0.312262    0.429838   -0.893421  0.000192131
830    0.310701    0.428544    -1.82906  0.000202613
840     0.30821    0.426479   -0.815884  0.000231796
850    0.306065    0.424701    -1.34188  0.000173363
860    0.304742    0.423604     -1.5177  0.000193928
870    0.302186    0.421485    -1.49791  0.00026466
880    0.299449    0.419216    -1.12776  0.000242573
890    0.297335    0.417463    -1.05002  0.000206617
900    0.295317     0.41579    -1.34217  0.000185601
910    0.293623    0.414386    -2.14094  0.000237851
920     0.29056    0.411847    -1.79011  0.000200357
930    0.289616    0.411064    -1.94656  0.000186963
940    0.286821    0.408747    -2.62786  0.000135323
950    0.286909     0.40882    -1.96646  7.86766e-05
960    0.285247    0.407442    -2.43435  9.5275e-05
970    0.285004     0.40724    -2.33691  0.000192198
980    0.281403    0.404255    -1.98678  0.000319751
990    0.278609    0.401938    -2.04531  0.000191812
1000    0.277567    0.401075    -2.82449  0.000108108
1010    0.276446    0.400146    -2.43513  0.000136438
1020    0.274838    0.398813    -2.51352  0.000182754
1030    0.272791    0.397116     -3.0004  0.000225392
1040     0.27033    0.395075    -2.92248  0.000206631
1050    0.268659     0.39369    -2.61119  0.000181472
1060    0.266701    0.392066    -2.80599  0.000151074
1070    0.265637    0.391185    -2.72842  0.000197732
1080    0.262746    0.388788    -2.39696  0.000230248
1090    0.261032    0.387367    -2.47564  0.00019605
1100    0.258825    0.385537    -2.00838  0.000235131
1110     0.25633    0.383468    -2.16395  0.000196925
1120    0.254887    0.382272    -2.30068  0.000162542
1130    0.253079    0.380773    -2.55365  0.000191349
1140     0.25106    0.379099    -2.80698  0.000177499
1150    0.249529     0.37783    -2.69067  0.000190907
1160    0.247242    0.375934    -2.72939  0.000219862
1170    0.245132    0.374185    -1.73644  0.000129337
1180    0.244655    0.373789    -2.47708  9.46045e-05
1190     0.24324    0.372616    -2.78912  0.000180772
1200    0.241039    0.370792    -2.63328  0.000195491
1210     0.23933    0.369375    -3.02306  0.000171154
1220    0.237616    0.367954    -1.97129  0.000255231
1230    0.234225    0.365143    -1.95154  0.000224309
1240     0.23313    0.364235    -1.95166  0.000113526
1250    0.231955     0.36326    -1.64059  0.000167577
1260    0.229779    0.361456   -0.822826  0.000117981
1270    0.229595    0.361304    -1.52437  0.000126261
1280    0.227253    0.359363    -1.89446  0.000213341
1290    0.225328    0.357767    -1.60223  0.000277129
1300    0.221711    0.354768    -1.83601  0.000238097
1310    0.220566    0.353819    -1.56353  0.000125141
1320    0.219208    0.352693    -1.81732  0.000243142
1330    0.215703    0.349788    -1.68051  0.000193258
1340    0.215343    0.349489    -2.05132  7.18959e-05
1350    0.214265    0.348595    -2.32416  0.000192823
1360    0.211486    0.346291    -1.40897  0.000246329
1370    0.209339    0.344511    -2.40219  0.000221658
1380    0.207053    0.342616    -1.27237  0.000198187
1390    0.205375    0.341225    -1.11724  0.000146673
1400     0.20412    0.340184    -1.58452  0.000211137
1410    0.201152    0.337724   -0.922719  0.000244941
1420    0.199221    0.336123    -1.19584  0.000165266
1430    0.197847    0.334984    -1.74111  0.000196507
1440    0.195291    0.332865    -2.01401  0.000230441
1450    0.193238    0.331163    -2.22871  0.00019475
1460    0.191396    0.329636    -1.68329  0.000209998
1470    0.189038    0.327681    -2.09229  0.000151233
1480    0.188371    0.327128    -2.73555  0.000171918
1490      0.1856    0.324831    -2.91038  0.00025854
1500      0.1832    0.322841    -2.24873  0.000192978
1510     0.18174    0.321631    -2.69675  0.000129918
1520    0.180602    0.320687    -2.69664  0.00012481
1530    0.179244    0.319561    -3.63203  0.000145451
1540    0.177693    0.318275    -3.37855  0.000145778
1550    0.176329    0.317144    -2.54164  6.45898e-05
1560    0.176401    0.317204    -2.44473  4.44263e-05
1570     0.17544    0.316408    -2.58148  0.000123474
1580    0.173932    0.315157    -2.07478  0.000153748
1590    0.172365    0.313858    -1.86055  0.000141819
1600    0.171095    0.312806    -1.58807  0.000105251
1610     0.17026    0.312113    -1.84184   0.0001247
1620    0.168601    0.310738    -1.45214  0.000144143
1630    0.167377    0.309723     -1.9784  0.000176059
1640     0.16508    0.307819    -1.62852  0.000195649
1650    0.163464    0.306479    -2.21267  0.000172779
1660    0.161625    0.304954   -0.518324  0.00017317
1670    0.160001    0.303608      -1.044  0.000179131
1680    0.158042    0.301984    -1.43344  0.000174014
1690    0.156521    0.300723     -1.6282  0.000134372
1700    0.155355    0.299756    -1.97869  6.97106e-05
1710    0.155126    0.299567    -2.07645  8.2393e-05
1720    0.153707     0.29839    -2.03756  9.22248e-05
1730    0.153282    0.298038    -2.46591  8.83475e-05
1740     0.15194    0.296925    -2.34919  0.000128834
1750    0.150705    0.295902    -2.52495  0.000123573
1760    0.149468    0.294876    -2.56369  0.000128049
1770    0.148144    0.293778    -1.82356  0.000139518
1780    0.146678    0.292563    -1.90212  0.000103533
1790    0.146074    0.292062     -1.9999  7.7261e-05
1800    0.145133    0.291282    -2.48673  9.70341e-05
1810    0.144133    0.290453     -1.7468  0.000156164
1820    0.142009    0.288692     -1.5906  0.000142437
1830    0.141284    0.288091    -1.31838  7.82192e-05
1840    0.140445    0.287395    -1.33795  8.68343e-05
1850    0.139548    0.286651    -1.64955  9.26897e-05
1860    0.138591    0.285859     -1.0462  0.000111252
1870    0.137322    0.284807    -1.88351  6.6305e-05
1880    0.137265    0.284759   -0.695793  0.000117456
1890    0.134973    0.282859    -1.68859  0.000102025
1900    0.135225    0.283067   -0.404005  2.30469e-05
1910    0.134512    0.282477   -0.871322  9.54479e-05
1920    0.133316    0.281485   -0.111894  9.42282e-05
1930    0.132628    0.280915   -0.637892  0.000157101
1940    0.130174     0.27888    -1.12452  0.000127467
1950    0.130079    0.278801   0.0624752  0.000109385
1960    0.127986    0.277066   -0.852332  0.000165235
1970    0.126774    0.276061   -0.988912  0.000175719
1980    0.124472    0.274153   -0.482512  0.000210457
1990    0.122565    0.272572   -0.560221  0.000149348
2000    0.121485    0.271676   -0.638082  4.92938e-05
2010    0.121579    0.271755   -0.444115  0.000127112
2020    0.118942    0.269569   -0.210209  0.00024094
2030     0.11676     0.26776   -0.346503  0.00022861
2040     0.11437    0.265778    0.140754  0.000113751
2050    0.114485    0.265873   -0.112845  9.54188e-05
2060    0.112462    0.264196   -0.638691  0.000125899
2070    0.111967    0.263786   -0.561419  4.95452e-05
2080    0.111471    0.263375   -0.366748  0.000174382
2090    0.108479    0.260895   -0.463751  0.000183385
2100    0.107803    0.260334   -0.346941  0.000104037
2110    0.106399     0.25917    -0.44402  0.000137735
2120    0.105048     0.25805   -0.444438  6.23018e-05
2130    0.105153    0.258137  -0.0357828  8.44382e-05
2140     0.10336     0.25665    -0.42541  0.00015905
2150    0.101972    0.255499   -0.892746  0.000121443
2160    0.100931    0.254637   -0.464435  6.46509e-05
2170    0.100679    0.254427    -1.14627  0.000104465
2180   0.0988415    0.252904   -0.562256  0.000160443
2190   0.0974697    0.251767   -0.620328  8.44147e-05
2200   0.0971532    0.251505   -0.328674  0.000122981
2210   0.0950101    0.249728   -0.776012  0.000137924
2220   0.0943948    0.249218   -0.718035  0.000105897
2230   0.0928921    0.247972   -0.698304  6.62092e-05
2240   0.0930706     0.24812   -0.971824  9.16522e-05
2250   0.0910591    0.246453    -1.01051  0.000239935
2260   0.0882719    0.244142    -1.32172  0.000117342
2270   0.0887123    0.244507    -1.01032  5.99064e-05
2280   0.0870738    0.243149    -1.20501  0.000112003
2290   0.0864722     0.24265    -1.14692  9.74678e-05
2300   0.0851244    0.241532   -0.776716  5.29252e-05
2310   0.0854137    0.241772    -0.97209  5.37783e-06
2320   0.0850168    0.241443   -0.718986  7.56294e-05
2330   0.0839011    0.240518   -0.641068  0.000150649
2340   0.0820039    0.238945   -0.426799  0.000145007
2350   0.0810009    0.238114    0.215915  9.13944e-05
2360    0.080176     0.23743   -0.407771  0.000153265
2370   0.0779356    0.235573    0.137959  0.000182186
2380   0.0765322    0.234409  -0.0373807  0.000101329
2390   0.0759091    0.233893   0.0985529  8.05136e-05
2400    0.074922    0.233074    0.235075  0.000153238
2410   0.0728443    0.231352    0.332687  7.64038e-05
2420   0.0733939    0.231807    0.293148  3.7387e-05
2430   0.0720966    0.230732   -0.290922  9.95643e-05
2440   0.0714026    0.230157    0.215116  0.00012873
2450    0.069522    0.228597    -0.31073  0.000128988
2460   0.0688229    0.228018   -0.232926  0.000117233
2470   0.0671773    0.226654  0.000732402  0.000108331
2480   0.0666562    0.226222    0.117352  0.000107159
2490   0.0650341    0.224877    0.195175  0.000111963
2500    0.064417    0.224365   -0.174759  7.55746e-05
2510   0.0635226    0.223624    0.117067  0.000144764
2520   0.0615217    0.221965   0.0394155  0.000166577
2530   0.0601911    0.220862    0.955231  0.000134775
2540   0.0588262     0.21973    0.584822  0.000104341
2550   0.0581043    0.219132    0.720869  8.7706e-05
2560   0.0570721    0.218276     1.05197  6.94022e-05
2570   0.0567162    0.217981     1.05178  2.63572e-05
2580   0.0565449    0.217839     1.09063  8.37078e-05
2590   0.0550421    0.216593    0.565071  9.46799e-05
2600   0.0546513    0.216269    0.331451  3.13861e-05
2610   0.0544144    0.216073     0.17531  5.94698e-05
2620   0.0534619    0.215283  -0.000313915  6.11251e-05
2630   0.0531919    0.215059    0.311282  9.91356e-06
2640   0.0532636    0.215119    0.291417  3.02522e-05
2650   0.0525868    0.214557     0.21348  4.90358e-05
2660   0.0522829    0.214306    0.855794  7.26698e-05
2670   0.0511334    0.213353    0.369221  6.96646e-05
2680   0.0508896     0.21315   0.0574353  1.97094e-05
2690   0.0507392    0.213026   -0.195765  7.79118e-05
2700   0.0493314    0.211859  -0.0205395  9.37687e-05
2710   0.0488639    0.211471   -0.118018  2.16156e-05
2720   0.0488991      0.2115    -0.17687  2.17134e-05
2730   0.0484296    0.211111    0.134687  9.75728e-05
2740   0.0469476    0.209882   -0.916757  6.9298e-05
2750   0.0470436    0.209962   -0.566345  8.70204e-05
2760   0.0452072     0.20844   -0.235132  0.000144236
2770   0.0441589     0.20757    -1.03347  5.57294e-05
2780   0.0440926    0.207515   -0.566516  6.23168e-05
2790   0.0429126    0.206537   -0.410605  8.47204e-05
2800   0.0423982    0.206111   -0.683402  0.000118502
2810   0.0405425    0.204572   -0.313278  0.000161861
2820    0.039161    0.203427   -0.936374  9.03599e-05
2830   0.0387353    0.203074    -1.40377  5.78053e-06
2840   0.0390454    0.203331   -0.781014  5.3975e-05
2850   0.0376558    0.202179    -1.26791  6.3647e-05
2860   0.0377725    0.202276    -0.93683  5.42752e-05
2870   0.0365703    0.201279   -0.975837  0.000107497
2880   0.0356225    0.200493   -0.605922  4.00633e-05
2890   0.0357691    0.200615   -0.605618  3.21751e-05
2900    0.034979     0.19996    -1.20946  1.45845e-06
2910   0.0357399    0.200591    -1.22927  2.91135e-05
2920   0.0343967    0.199477    -1.36558  8.58368e-05
2930   0.0340232    0.199168    -1.11228  3.90297e-05
2940   0.0336162     0.19883    -1.42407  9.60737e-05
2950   0.0321017    0.197575    -1.01496  3.76152e-05
2960   0.0328639    0.198206   -0.878987  -1.26716e-06
2970    0.032127    0.197596    -1.19035  4.43768e-05
2980   0.0319763    0.197471    -1.26837  6.25388e-05
2990   0.0308763    0.196559    -1.07356  0.000106886
3000   0.0298386    0.195698    -1.22951  4.97701e-05
3010   0.0298808    0.195733    -1.91138  7.29924e-05
3020   0.0283787    0.194488   -0.781775  7.14467e-05
3030   0.0284519    0.194549   -0.548306  4.20148e-06
3040   0.0282947    0.194418   -0.529202  4.21536e-05
3050   0.0276088     0.19385   -0.470503  9.51239e-05
3060   0.0263922    0.192841   -0.100664  7.8807e-05
3070   0.0260327    0.192543   -0.782288  8.07527e-05
3080   0.0247772    0.191502    0.230207  7.09623e-05
3090   0.0246135    0.191366  -0.0228027  3.30192e-05
3100   0.0241168    0.190955  -0.0812172  0.000104673
3110     0.02252    0.189631  -0.0033381  0.000101561
3120   0.0220856    0.189271  -0.0228027  1.3449e-05
3130    0.022251    0.189408   -0.393098  1.18673e-05
3140   0.0218482    0.189074     0.23015  2.19103e-05
3150   0.0218128    0.189045    0.736093  6.05661e-05
3160   0.0206369     0.18807    0.580467  2.87504e-05
3170   0.0212378    0.188568     1.02813  5.75537e-05
3180   0.0194858    0.187115    0.775137  8.61818e-05
3190   0.0195142    0.187139    0.658175   3.428e-05
3200   0.0188002    0.186547     1.28114  6.64266e-05
3210   0.0181856    0.186038     1.16425  6.66252e-05
3220   0.0174677    0.185442     1.24226  3.46233e-05
3230   0.0174932    0.185464    0.288051  1.27194e-05
3240   0.0172133    0.185232    0.697067  6.03154e-05
3250   0.0162869    0.184463    0.755273  8.25735e-05
3260   0.0155619    0.183862    0.482817  3.68179e-05
3270   0.0155505    0.183853    0.833058  1.1374e-05
3280   0.0153344    0.183674      1.1837  7.80612e-05
3290   0.0139893    0.182559    0.950286  6.45186e-05
3300    0.014044    0.182604     1.02817  2.70895e-05
3310   0.0134475    0.182109     1.53411  7.51979e-05
3320   0.0125401    0.181357     1.22246   0.0001098
3330   0.0112515    0.180289      1.2227  4.80994e-05
3340   0.0115781     0.18056    0.891358  -8.09954e-05
3350   0.0128714    0.181632    0.715601  2.76584e-05
3360   0.0110249    0.180101     1.47558  8.63274e-05
3370   0.0111449    0.180201     1.31957  5.55496e-05
3380  0.00991391     0.17918     1.22217  1.3964e-05
3390   0.0108656    0.179969     1.37761  2.70503e-07
3400   0.0099085    0.179176     1.04658  4.36481e-05
3410  0.00999262    0.179245     1.04681  2.64272e-05
3420  0.00937996    0.178737     1.33889  2.81949e-05
3430  0.00942872    0.178778    0.988114  2.30858e-05
3440  0.00891824    0.178355     1.39732  7.56473e-05
3450  0.00791577    0.177523     1.18332  -1.00933e-05
3460  0.00912011    0.178522     1.45541  -2.57658e-05
3470  0.00843109    0.177951     1.31944  6.5491e-05
3480  0.00781029    0.177436     1.20263  -2.76863e-05
3490  0.00898482     0.17841     1.86424  -2.58745e-05
3500  0.00832777    0.177865     1.35791  4.28366e-05
3510  0.00812808    0.177699     2.03944  7.13272e-05
3520  0.00690123    0.176682     1.68903  2.53739e-05
3530  0.00762061    0.177279     1.70798  2.91566e-05
3540   0.0063181    0.176199     2.15639  3.9754e-05
3550  0.00682552     0.17662     1.86395  2.22069e-05
3560  0.00587396    0.175831      2.2148  4.89244e-05
3570  0.00584704    0.175808     1.80582  6.16554e-05
3580  0.00464085    0.174808     1.82502  6.53374e-05
3590  0.00454029    0.174725     1.90296  3.15713e-05
3600  0.00400943    0.174285     1.63048  5.85602e-05
3610  0.00336909    0.173754     1.76668  6.59332e-05
3620  0.00269076    0.173192     1.63024  6.25334e-05
3630  0.00211842    0.172717     1.80569  4.47023e-05
3640  0.00179672    0.172451     1.78636  7.19581e-05
3650  0.000679256    0.171524     1.33839  2.68936e-05
3660  0.00125885    0.172005     1.43538  3.97981e-05
3670  -0.000116705    0.170864     1.70817  0.000112364
3680  -0.000988427    0.170142     1.74731  1.64175e-05
3690  -0.000445055    0.170592     1.66903    1.84e-05
3700  -0.00135643    0.169836     1.18219  4.02268e-05
3710  -0.00124959    0.169925     1.10411  1.85186e-05
