Time   C(t)   
ps   
0           1           1  6.95615e-10   0.0486167
10    0.519455    0.798569    0.142076   0.0254001
20    0.491999     0.78706    -1.15766  0.00218347
30    0.475785    0.780264     1.12319  0.00151822
40    0.461634    0.774332     1.88365    0.001034
50    0.455105    0.771596    0.583563  0.00110995
60    0.439435    0.765027   -0.489661  0.00154754
70    0.424154    0.758622   -0.488962  0.000977707
80    0.419881    0.756831   -0.445967  0.000522508
90    0.413704    0.754242     1.43298  0.000623538
100     0.40741    0.751603     1.65552  0.000872575
110    0.396253    0.746926      2.3729  0.000594367
120    0.395523    0.746621   -0.449027  0.000691174
130    0.382429    0.741132     1.11834  0.00092466
140     0.37703    0.738869     1.16173  0.000604022
150    0.370349    0.736068   -0.719191  0.000599842
160    0.365033     0.73384    0.176415  0.000744383
170    0.355461    0.729828     -1.1657  0.000692588
180    0.351181    0.728034    -0.76341  0.000662351
190    0.342214    0.724275    -1.12236  0.000631572
200     0.33855    0.722739     1.69755  0.000489333
210    0.332427    0.720173     1.20538  0.000420873
220    0.330132    0.719211     3.21738  0.000710107
230    0.318225     0.71422    0.982579  0.000395869
240    0.322215    0.715892     1.74046  -3.57628e-06
250    0.318297     0.71425    0.486076  0.000697301
260    0.308269    0.710046     2.14236  0.000510848
270     0.30808    0.709967     3.88647  0.000549994
280    0.297269    0.705435      3.7539  0.000502224
290    0.298035    0.705757     3.08057  0.000229712
300    0.292675     0.70351     2.09652  0.000692667
310    0.284182     0.69995    0.888153  0.000209086
320    0.288493    0.701757     1.37722  -7.02307e-05
330    0.285587    0.700538     1.78157  0.000452895
340    0.279435     0.69796     1.15447  0.000215846
350     0.28127    0.698729     1.51054  0.000530441
360    0.268826    0.693513     1.24496  0.000438797
370    0.272494     0.69505  -0.00972672  -1.48013e-05
380    0.269122    0.693637   -0.324241  0.000239849
390    0.267697    0.693039    0.614842  0.000164421
400    0.265834    0.692259     0.70376  0.000300661
410    0.261684    0.690519     1.06227  0.000241286
420    0.261008    0.690236    0.525311  0.000296493
430    0.255754    0.688033   0.0773992  0.000155002
440    0.257908    0.688936   -0.327562  0.000172073
450    0.252312    0.686591      0.9273  0.000292377
460    0.252061    0.686485     1.68702  3.22014e-06
470    0.252248    0.686564    0.476371  0.000151112
480    0.249038    0.685218     0.20835  0.000452881
490     0.24319    0.682767     0.38859  0.000360376
500    0.241831    0.682197    0.567301  7.55988e-05
510    0.241678    0.682133    0.387671  5.38424e-05
520    0.240754    0.681746    0.566426  2.08959e-05
530     0.24126    0.681958    0.161334  0.000390315
540    0.232948    0.678474    -1.04542  0.000545202
550    0.230356    0.677387   0.0736392  0.000275961
560    0.227428     0.67616    0.251344  0.000248886
570    0.225379    0.675301     0.65447  8.34122e-05
580     0.22576    0.675461    -2.21207  -0.000104706
590    0.227473    0.676179    -1.13788  0.00026125
600    0.220535    0.673271   -0.823147  0.000433521
610    0.218802    0.672544   -0.600001  -4.45098e-06
620    0.220624    0.673308   0.0700982  -5.99213e-05
630    0.220001    0.673047     1.18903  0.000201656
640    0.216591    0.671617    0.696372  0.000369227
650    0.212616    0.669951    -3.15263  0.000314183
660    0.210307    0.668984    0.383519  0.000259054
670    0.207435     0.66778     1.45731  0.000136495
680    0.207578    0.667839   -0.468961  0.000232164
690    0.202792    0.665833   -0.244022  0.000540751
700    0.196763    0.663306   -0.825158  0.000148958
710    0.199813    0.664584    -1.09593  2.61575e-05
720    0.196239    0.663087    -1.67681  0.000295854
730    0.193896    0.662104   -0.424918  0.000116366
740    0.193912    0.662111   -0.559061   0.0002013
750     0.18987    0.660417   -0.514535  0.000257965
760    0.188753    0.659948   0.0232135  0.000264344
770    0.184583      0.6582   -0.827169  0.000349569
780    0.181761    0.657018     1.27593  0.000129562
790    0.181991    0.657114   0.0673442  0.000288723
800    0.175987    0.654597     1.23233  3.93674e-05
810    0.181204    0.656784   -0.919453  0.000409305
820    0.167801    0.651166    -1.22951  0.000517211
830     0.17086    0.652448    0.157267  -0.000260682
840    0.173014    0.653351   -0.604677  5.7824e-05
850    0.169703    0.651963     1.81237  -0.000159118
860    0.176197    0.654685     1.54138  0.000338001
870    0.162943     0.64913      1.6791  0.000417638
880    0.167844    0.651184     1.63169  -0.000169982
890    0.166343    0.650555    0.200437  -3.89121e-05
900    0.168622     0.65151   -0.785355  -0.000262565
910    0.171594    0.652756    0.332744  0.000351439
920    0.161594    0.648564     2.34942  0.000219259
930    0.167209    0.650918     1.40693  -5.56558e-05
940    0.162707    0.649031     1.98986  0.000277837
950    0.161652    0.648589     2.30232  3.63596e-05
960    0.161979    0.648726    0.556284  6.54392e-05
970    0.160344     0.64804     1.76448  0.000175285
980    0.158474    0.647256    0.421705  0.000111973
990    0.158104    0.647101     1.31679  2.54251e-05
1000    0.157965    0.647043      2.3017  -4.98965e-05
1010    0.159102     0.64752    0.108152  5.45539e-05
1020    0.156874    0.646586   -0.966689  -0.000224557
1030    0.163593    0.649402    0.374776  -6.73585e-05
1040    0.158221    0.647151   -0.296109  4.24951e-05
1050    0.162743    0.649046   -0.297552  1.97582e-05
1060    0.157826    0.646985   -0.161662  0.000112733
1070    0.160489    0.648101    0.417989  2.34619e-06
1080    0.157779    0.646965    0.196197  0.000101528
1090    0.158458     0.64725    -1.37025  -0.000120682
1100    0.160193    0.647977    -1.28168  8.11964e-06
1110    0.158296    0.647182  -0.0737928  0.000260461
1120    0.154984    0.645793     1.80708  0.000161073
1130    0.155074    0.645831     1.04501  0.000308744
1140    0.148809    0.643205    0.330951  0.000232456
1150    0.150425    0.643883    0.105486  9.18731e-05
1160    0.146971    0.642435   -0.430995  0.000268936
1170    0.145046    0.641628   -0.609661  -0.000221101
1180    0.151393    0.644288    0.149355  -2.57663e-05
1190    0.145562    0.641844     1.22437  0.000257902
1200    0.146235    0.642126   -0.432656  8.68395e-05
1210    0.143825    0.641116    0.955126  0.000282871
1220    0.140578    0.639755    0.105355  -3.17171e-05
1230    0.144459    0.641382    0.507126  -0.000168289
1240    0.143944    0.641166     1.08879  -3.77886e-05
1250    0.145215    0.641699     1.31185  0.000224748
1260    0.139449    0.639282    0.327759  0.000439877
1270    0.136418    0.638011    0.999082  0.000225744
1280    0.134934    0.637389   -0.478186  -6.10158e-05
1290    0.137638    0.638523   -0.926361  -0.000354581
1300    0.142025    0.640362    -1.19539  -0.000133274
1310    0.140303     0.63964    0.549596  0.000280568
1320    0.136414     0.63801     0.10282  0.000413422
1330    0.132035    0.636174   -0.657071  0.000366155
1340    0.129091     0.63494   0.0588194  1.14188e-05
1350    0.131807    0.636078   -0.836744  -0.000241712
1360    0.133925    0.636966    0.818798  0.000126284
1370    0.129281    0.635019     1.89351  0.000362118
1380    0.126683    0.633931    0.147257  0.000181357
1390    0.125654    0.633499    0.460371  3.03164e-05
1400    0.126077    0.633676     1.35589  -7.87981e-05
1410     0.12723     0.63416    0.190339  -5.46604e-05
1420     0.12717    0.634135   -0.168044  -9.74394e-05
1430    0.129178    0.634977     0.86188  0.000103476
1440      0.1251    0.633267     1.35607  -7.95804e-05
1450     0.13077    0.635644    0.593028  -9.75177e-05
1460    0.127051    0.634085    0.862011  1.17309e-05
1470    0.130535    0.635545     1.08529  -0.000122446
1480      0.1295    0.635111     2.92112  0.00014659
1490    0.127604    0.634316     1.75753  -0.000227372
1500    0.134047    0.637017     2.91937  -0.000135229
1510    0.130308     0.63545      2.1593  0.000374261
1520    0.126562     0.63388     1.26383  6.11022e-05
1530    0.129086    0.634938     2.38109  -0.000178755
1540    0.130137    0.635378     2.91941  4.28863e-05
1550    0.128228    0.634578     2.29226  0.00029616
1560    0.124214    0.632895     3.41281  0.00038334
1570    0.120562    0.631365     2.65139  0.000217006
1580    0.119874    0.631076     3.05364  -0.000117113
1590    0.122904    0.632346     3.67891  0.000124969
1600    0.117374    0.630029     4.08365  0.00030499
1610    0.116804     0.62979     3.00951  7.3161e-06
1620    0.117228    0.629967     2.74018  -0.000104749
1630    0.118899    0.630668     4.21687  0.000275562
1640    0.111717    0.627657      2.9642  0.000194518
1650    0.115009    0.629037     3.32096  -3.57341e-05
1660    0.112431    0.627957       2.784  0.000402018
1670    0.106968    0.625667     3.54625  4.55741e-05
1680     0.11152    0.627575     4.88728  -9.17595e-05
1690    0.108804    0.626436     4.70848  6.46424e-05
1700    0.110227    0.627033     3.14238  3.98859e-05
1710    0.108006    0.626102      3.9035  -3.58261e-05
1720    0.110943    0.627333     4.30457  -7.97153e-05
1730      0.1096     0.62677     5.24535  7.13255e-05
1740    0.109517    0.626735      3.5885  0.000292804
1750    0.103744    0.624315     3.81353  0.000248872
1760     0.10454    0.624649     4.48407  -0.000231659
1770    0.108377    0.626257     6.63196  -1.00035e-05
1780     0.10474    0.624732     5.33449  4.02983e-05
1790    0.107571    0.625919     3.27429  -1.00747e-05
1800    0.104941    0.624817     3.90144  0.000155122
1810    0.104469    0.624619     2.91626  5.3658e-05
1820    0.103868    0.624367     4.30321  0.000309107
1830   0.0982867    0.622028     4.30483  1.55561e-05
1840    0.103557    0.624237     4.48227  -0.000310066
1850    0.104488    0.624627     5.37718  4.76856e-05
1860    0.102603    0.623837     5.19899  0.000265687
1870   0.0991743      0.6224     6.81084  -0.000125488
1880    0.105113    0.624889     5.55567  -0.000330969
1890    0.105794    0.625174     5.68968  0.000266597
1900   0.0997809    0.622654     5.46715  0.000402217
1910   0.0977493    0.621802     4.92957  -0.000112861
1920    0.102038      0.6236      5.0635  -0.000261392
1930    0.102977    0.623994     6.22678  4.83327e-05
1940    0.101071    0.623195     6.72083  5.4767e-05
1950    0.101882    0.623535     5.33165  0.00010696
1960   0.0989323    0.622298     5.46649  0.000171908
1970   0.0984437    0.622093     6.71904  0.000218008
1980   0.0945721    0.620471      7.7047  0.000211823
1990   0.0942072    0.620318     7.65913  0.000153899
2000   0.0914941     0.61918     7.52516  3.67083e-05
2010   0.0934731     0.62001     7.03141  -0.000256984
2020   0.0966338    0.621335     6.49384  0.000180774
2030   0.0898576    0.618494     5.73447  0.000102033
2040   0.0945932    0.620479     7.12138  -0.000211809
2050   0.0940938     0.62027     7.47862  0.000109093
2060   0.0924113    0.619565     6.22581  7.64165e-05
2070   0.0925654    0.619629     6.76348  -0.000219544
2080   0.0968022    0.621405      6.7176  -0.000167095
2090   0.0959073     0.62103      7.2096  -2.92212e-05
2100   0.0973866     0.62165     6.04483  0.000182317
2110    0.092261    0.619502     5.73215  0.000380887
2120   0.0897689    0.618457     6.62732  -0.000340169
2130   0.0990644    0.622354     7.29615  -3.51153e-05
2140   0.0904712    0.618752     6.80669  0.000375484
2150   0.0915547    0.619206     5.86551  -0.000148368
2160   0.0934385    0.619995     6.76011  -1.55207e-05
2170   0.0918651    0.619336     7.43169  0.000130913
2180   0.0908203    0.618898     6.84977  -0.000155776
2190   0.0949806    0.620642     6.04238  6.47493e-05
2200   0.0895253    0.618355     6.53644  0.000332064
2210   0.0883394    0.617858     6.17823  0.000125389
2220   0.0870175    0.617304     6.58136  -0.000203156
2230   0.0924025    0.619561     6.49099  -2.17773e-05
2240    0.087453    0.617486     6.49178  0.000206284
2250   0.0882768    0.617832     5.90925  9.93952e-05
2260   0.0854651    0.616653     5.68566  0.000112868
2270   0.0860194    0.616886     5.23766  -1.49235e-05
2280   0.0857636    0.616778     6.75941  0.000120249
2290   0.0836145    0.615877     7.38629  6.62137e-05
2300   0.0844393    0.616223     5.81958  -0.000238527
2310    0.088385    0.617877     4.92214  -0.000130302
2320   0.0870454    0.617316      6.1303  -1.82018e-06
2330   0.0884214    0.617892     4.60789  0.00044083
2340   0.0782288     0.61362     5.77419  0.000529852
2350   0.0778244     0.61345     5.90855  0.000204286
2360    0.074143    0.611907     5.32715  6.78774e-05
2370   0.0764668    0.612881     5.32636  -0.000109484
2380   0.0763327    0.612825     4.83432  8.19691e-05
2390   0.0748274    0.612194     6.04225  0.000191873
2400   0.0724953    0.611217     6.62483  0.000185438
2410   0.0711187     0.61064     5.54955  0.000179118
2420   0.0689129    0.609715     6.62435  0.000275989
2430   0.0655989    0.608326     5.68417  -9.5826e-05
2440   0.0708294    0.610518     7.51843  -0.000171503
2450   0.0690289    0.609764     6.35467  4.88799e-05
2460   0.0698518    0.610109      6.0863  5.61036e-05
2470   0.0679069    0.609293     5.19082  0.000319593
2480     0.06346    0.607429     5.95325  1.47671e-05
2490   0.0676115    0.609169     8.18975  -0.00029751
2500   0.0694102    0.609923     8.14422  0.000133181
2510   0.0649479    0.608053      7.1146  8.43223e-05
2520   0.0677237    0.609217      7.3374  0.00011294
2530   0.0626891    0.607106     7.11399  0.000448246
2540   0.0587588    0.605459     7.74284  0.000127593
2550   0.0601373    0.606036     7.51773  -0.00017311
2560    0.062221     0.60691     5.99523  -4.72376e-05
2570    0.061082    0.606432       6.756  -5.36796e-06
2580   0.0623284    0.606955     6.21829  -6.15142e-05
2590   0.0623123    0.606948     5.76973  0.000325758
2600   0.0558132    0.604224     6.08441  0.000326206
2610   0.0557882    0.604213      6.6659  -0.000265971
2620   0.0611326    0.606454     6.30678  -4.69958e-05
2630   0.0567281    0.604607     7.06833  4.4287e-05
2640   0.0602469    0.606082     7.87322  -3.30536e-05
2650   0.0573892    0.604885     7.33556  7.29965e-05
2660    0.058787     0.60547     5.27602  -0.000104386
2670   0.0594769     0.60576     6.26006  3.77746e-05
2680   0.0580315    0.605154     5.63432  -9.78241e-05
2690   0.0614334     0.60658     7.11062  -0.000112065
2700   0.0602728    0.606093     6.97661  0.000166284
2710   0.0581077    0.605186      6.0817  3.05936e-05
2720   0.0596609    0.605837     6.70772  -1.20938e-05
2730   0.0583496    0.605287     6.43934  2.35762e-05
2740   0.0591894    0.605639     6.70728  -0.000206362
2750   0.0624768    0.607017     7.51169  4.5318e-05
2760    0.058283    0.605259      7.3783  0.000434396
2770   0.0537889    0.603375     9.30391  8.16776e-05
2780   0.0566495    0.604575     7.73633  -7.67078e-05
2790   0.0553231    0.604019     6.97547  -0.000135129
2800   0.0593521    0.605707     8.22763  0.000154958
2810   0.0522239    0.602719     8.13845  0.000357965
2820   0.0521928    0.602706     8.49735  -0.000367798
2830   0.0595799    0.605803     9.43495  -0.000259075
2840   0.0573742    0.604878     8.67488  0.000242743
2850    0.054725    0.603768     8.04883  0.000155733
2860   0.0542596    0.603573     8.45165  1.74049e-05
2870   0.0543769    0.603622     9.61362  0.000163967
2880   0.0509802    0.602198     8.63036  0.000332839
2890   0.0477201    0.600832     9.57032  0.000194269
2900   0.0470949    0.600569     9.16789  -0.000113914
2910   0.0499984    0.601787     9.21124  -0.000143455
2920    0.049964    0.601772     9.12101  9.93313e-05
2930   0.0480118    0.600954     9.39012  0.000210273
2940   0.0457585    0.600009      9.4807  1.1134e-05
2950   0.0477891     0.60086     8.94295  1.14752e-05
2960    0.045529    0.599913     10.0174  4.83112e-05
2970   0.0468228    0.600455     9.61432  0.000219544
2980   0.0411381    0.598073     9.92848  -2.583e-05
2990   0.0473395    0.600672     9.34455  -9.95658e-05
3000   0.0431294    0.598907     9.39056  0.000108318
3010   0.0451731    0.599764     10.7329  -1.79309e-05
3020   0.0434881    0.599058      9.6141  -3.321e-05
3030   0.0458373    0.600042     9.61349  -8.54459e-05
3040    0.045197    0.599774     10.1495  0.000559337
3050   0.0346506    0.595353     11.4949  0.000207095
3060   0.0410551    0.598038      9.8372  -1.68432e-05
3070   0.0349874    0.595494     9.70455  0.000140447
3080   0.0382461     0.59686     10.0163  -0.000213131
3090     0.03925    0.597281     10.6424  -2.49838e-05
3100   0.0387458     0.59707     11.0009  0.000247287
3110   0.0343043    0.595208     10.7332  1.2755e-05
3120   0.0384907    0.596963     10.5965  -0.000145965
3130   0.0372236    0.596432     9.61191  0.000339721
3140   0.0316963    0.594115     9.56726  0.000233799
3150   0.0325476    0.594472     9.29893  -3.18805e-05
3160   0.0323339    0.594382     11.6707  -9.14335e-06
3170   0.0327305    0.594548     12.1187  9.78951e-05
3180    0.030376    0.593561     12.1192  0.00015926
3190   0.0295453    0.593213     12.3426  -0.000415256
3200   0.0386811    0.597043     11.6688  -0.000139296
3210   0.0323312    0.594381     11.5808  0.000420581
3220   0.0302695    0.593517     12.6102  0.000322004
3230   0.0258911    0.591681      12.969  0.00016081
3240   0.0270533    0.592169     13.1018  -7.00531e-05
3250   0.0272922    0.592269     11.8482  -3.166e-05
3260   0.0276865    0.592434     12.7879  0.000223959
3270    0.022813    0.590391     12.5648  6.90293e-05
3280   0.0263059    0.591855     13.2351  0.000341847
3290    0.015976    0.587525     13.1476  0.000248445
3300    0.021337    0.589773     13.0569  -0.000529084
3310   0.0265577    0.591961     12.1599  0.000195285
3320   0.0174313    0.588135     12.8332  0.000444975
3330   0.0176582     0.58823     12.9672  -0.000124543
3340   0.0199221    0.589179     12.2052  -0.000281584
3350   0.0232899    0.590591     13.4576  -7.81867e-05
3360   0.0214859    0.589835     14.6218  7.0636e-05
3370   0.0218772    0.589999     12.1158  6.31636e-05
3380   0.0202226    0.589305     12.7866  0.000252477
3390   0.0168277    0.587882      12.474  5.55917e-05
3400   0.0191108    0.588839     12.8317  1.66725e-05
3410   0.0164942    0.587743     13.5481  0.000222367
3420   0.0146634    0.586975      13.414  0.000119928
3430   0.0140956    0.586737      13.414   4.888e-05
3440   0.0136858    0.586565     13.0546  1.23712e-06
3450   0.0140709    0.586727     13.0548  4.11872e-05
3460   0.0128621     0.58622     14.0401  0.000304713
3470  0.00797665    0.584172     13.1904  -0.000126533
3480   0.0153928    0.587281     12.7414  -0.000206064
3490   0.0120979      0.5859     12.6522  0.000193593
3500   0.0115209    0.585658      13.995  0.000242615
3510  0.00724562    0.583866     12.6977  -6.37751e-06
3520   0.0116484    0.585711     14.0395  -0.000118578
3530  0.00961717     0.58486     14.3972  2.58442e-05
3540   0.0111316    0.585495     13.6362  -0.00025675
3550   0.0147522    0.587012     14.2618  0.000309433
3560  0.00494289    0.582901     13.2344  0.000382309
3570  0.00710598    0.583807     12.6968  -0.000159758
3580  0.00813804     0.58424     13.9944  9.18589e-05
3590   0.0052688    0.583037     12.5626  -5.93667e-06
3600  0.00825677     0.58429     12.2484  -0.000111589
3610  0.00750057    0.583973     13.0994  -0.000120419
3620   0.0106652    0.585299     13.0983  -7.1347e-05
3630  0.00892751    0.584571     13.6808  -5.55632e-05
3640   0.0117764    0.585765     14.0379  0.000125275
3650  0.00642201    0.583521     12.8752  0.00057741
3660  0.000228225    0.580924     13.2352  0.000109598
3670  0.00423006    0.582602     13.0094  -0.000326547
3680  0.00675916    0.583662     12.4709  0.00018467
3690  0.000536649    0.581054     13.4565  0.000424598
3700  -0.00173281    0.580102     13.1436  0.000102929
3710  -0.00152193    0.580191     12.5615  7.85493e-05
3720  -0.00330379    0.579444     13.8589  4.53962e-05
3730  -0.00242985     0.57981     15.3807  -2.091e-05
3740  -0.00288559    0.579619     13.1862  5.40062e-05
3750  -0.00350998    0.579357     13.8585  0.000137731
3760  -0.00564022    0.578464     14.8432  -4.60716e-05
3770  -0.00258854    0.579744     14.1706  -0.000138016
3780  -0.0028799    0.579621     14.0809  7.11693e-05
3790  -0.00401193    0.579147     12.7825  2.08602e-05
3800  -0.00329711    0.579447     12.3346  0.000214852
3810  -0.00830896    0.577346     12.3801  0.000350102
3820  -0.0102991    0.576512     14.4842  -0.00037537
3830  -0.000801561    0.580493     12.6021  6.45429e-05
3840    -0.01159     0.57597     13.0515  0.000487079
3850  -0.0105431    0.576409     13.7678  -7.94238e-05
3860  -0.0100015    0.576636     13.5877  -0.000105268
3870  -0.00843779    0.577292     13.8569  -2.88019e-05
3880  -0.00942549    0.576878     13.6771  -1.20298e-05
3890  -0.00819719    0.577393     13.6322  9.92175e-05
3900  -0.0114098    0.576046     13.9454  0.000450236
3910  -0.0172019    0.573618     14.0809  -6.30712e-05
3920  -0.0101484    0.576575       12.96  -0.00044019
3930  -0.00839812    0.577308      13.855  -5.48807e-05
3940  -0.0090508    0.577035     13.7656  0.000125723
3950  -0.0109126    0.576254     13.5856  0.000195143
3960  -0.0129537    0.575399     14.6165  4.00923e-05
3970  -0.0117144    0.575918     13.9893  -2.82968e-06
3980  -0.0128971    0.575423     13.4964   0.0001445
3990  -0.0146044    0.574707     14.3026  0.000101478
4000  -0.0149266    0.574572      14.034  1.48453e-05
4010  -0.0149013    0.574582     14.3916  -2.52402e-06
4020  -0.0148762    0.574593     15.2423  -4.61712e-05
4030  -0.0139779     0.57497     13.2728  -0.00013375
4040  -0.0122012    0.575714     13.3173  9.37358e-05
4050  -0.0158526    0.574184     13.9893  0.000155044
4060   -0.015302    0.574414     13.4505  -6.39528e-05
4070  -0.0145736     0.57472     15.2856  0.000314652
4080  -0.0215951    0.571777     14.4368  0.000315072
4090   -0.020875    0.572078     14.9729  0.000193053
4100  -0.0254561    0.570158     14.1685  -0.000169768
4110  -0.0174796    0.573502     13.7188  -0.000204756
4120   -0.021361    0.571875     14.8388  0.000379906
4130  -0.0250778    0.570317     15.0626  0.00020322
4140  -0.0254254    0.570171      13.899  -0.000107806
4150  -0.0229216    0.571221      14.256  -0.000286483
4160  -0.0196958    0.572573     14.4794  -1.01102e-05
4170  -0.0227194    0.571305      15.196  0.000195349
4180  -0.0236028    0.570935      13.584  -2.81833e-05
4190  -0.0221558    0.571542     13.9416  -0.000144919
4200  -0.0207044     0.57215     14.2998  -6.43581e-05
4210  -0.0208686    0.572081     14.3889  7.96087e-05
4220  -0.0222965    0.571483      15.016  7.07356e-05
4230  -0.0222833    0.571488     15.5527  -3.75185e-05
4240  -0.0215462    0.571797     14.4333  -0.000173622
4250  -0.0188109    0.572944     13.8958  0.000316494
4260   -0.027876    0.569144     14.3897  0.000143661
4270  -0.0216841    0.571739     15.9105  -5.50372e-05
4280  -0.0267753    0.569605     14.0754  -4.70954e-05
4290  -0.0207422    0.572134     14.9691  -9.20437e-05
4300  -0.0249344    0.570377     14.9247  0.000264165
4310  -0.0260255     0.56992     15.0143  -5.594e-05
4320  -0.0238156    0.570846     14.8791  -8.34267e-05
4330   -0.024357    0.570619     14.4755  8.11936e-06
4340   -0.023978    0.570778     15.9527  0.000100519
4350  -0.0263673    0.569776     13.9386  0.000304073
4360  -0.0300595    0.568229     14.2529  0.000129064
4370  -0.0289486    0.568694     14.5211  9.32813e-06
4380   -0.030246     0.56815     13.9836  4.6292e-05
4390  -0.0298745    0.568306     15.2364  0.000298029
4400  -0.0362066    0.565652     14.1628  0.000195904
4410  -0.0337925    0.566664     14.6104  -0.000391353
4420  -0.0283796    0.568933     15.7279  -5.54709e-05
4430  -0.0326831    0.567129     15.4156  5.5997e-05
4440  -0.0294995    0.568463     16.6233  -0.000159203
4450  -0.0294991    0.568464     14.8321  0.00018819
4460  -0.0332633    0.566886     15.7729  0.000216814
4470  -0.0338353    0.566646     14.9227  0.000217873
4480  -0.0376208    0.565059     15.2812  0.000152136
4490  -0.0368781     0.56537     15.0565  0.000200511
4500   -0.041631    0.563378      14.744  -3.67364e-05
4510  -0.0361433    0.565678     14.6084  0.000106818
4520  -0.0437673    0.562483     16.2654  0.000201336
4530  -0.0401701    0.563991     15.5936  -0.000198016
4540   -0.039807    0.564143       15.19  0.000193245
4550  -0.0440349     0.56237     16.3102  0.000203142
4560  -0.0438699     0.56244     15.6829  -0.000237439
4570  -0.0392862    0.564361     15.3246  -0.000132122
4580  -0.0412274    0.563547     15.8618  -5.61036e-05
4590  -0.0381641    0.564831     15.0995  -2.68752e-05
4600  -0.0406899    0.563773     14.6076  0.000378854
4610  -0.0457412    0.561655     13.6682  0.000186171
4620  -0.0444133    0.562212     15.0549  -0.000356351
4630  -0.0386141    0.564643     14.6962  -0.00033778
4640  -0.0376577    0.565044     15.0093  0.000284293
4650     -0.0443    0.562259     14.5187  0.00045062
4660  -0.0466701    0.561266     14.8766  2.22823e-05
4670  -0.0447456    0.562073     15.5476  -2.62139e-05
4680  -0.0461459    0.561486     14.9661  0.000238492
4690  -0.0495155    0.560073     15.7267  0.000209668
4700  -0.0503392    0.559728     14.4737  -0.000193458
4710  -0.0456463    0.561695     14.0244  7.30321e-05
4720  -0.0517999    0.559116     14.0248  0.000379017
4730  -0.0532267    0.558518     13.8461  0.000123121
4740  -0.0542623    0.558083     14.7858  -9.48805e-05
4750  -0.0513291    0.559313     15.4562  1.45964e-05
4760  -0.0545542    0.557961     13.6217  0.000263319
4770  -0.0565954    0.557105     14.6066  0.000124614
4780  -0.0570465    0.556916        13.8  0.000115236
4790  -0.0589002    0.556139     14.8748  0.00011552
4800  -0.0593569    0.555948     14.6504  -4.45787e-06
4810   -0.058811    0.556177     14.9637  0.000237248
4820  -0.0641018    0.553959     13.6659  0.000288005
4830  -0.0645711    0.553762     14.2921  0.000168339
4840  -0.0674686    0.552548     14.0237  0.000178883
4850  -0.0681488    0.552263     13.3967  -7.3871e-05
4860  -0.0659912    0.553167     13.9775  0.000322572
4870  -0.0746002    0.549558     14.1134  0.000190365
4880  -0.0697985    0.551571     14.1566  0.000427151
4890  -0.0831432    0.545977     13.1286  0.000294126
4900   -0.075681    0.549105     14.5146  -0.000266163
4910    -0.07782    0.548209     14.3808  -0.000155236
4920  -0.0725763    0.550407     12.7685  0.000276857
4930  -0.0833571    0.545888     13.3514  0.000760743
4940  -0.0877912    0.544029     13.2624  7.25556e-05
4950  -0.0848082     0.54528     12.9038  -9.18582e-06
4960  -0.0876075    0.544106     13.7093  0.000114582
4970  -0.0870998    0.544319     13.7978  0.000188083
4980  -0.0913691    0.542529     14.0229  0.00033409
4990  -0.0937816    0.541518     13.8877  0.000480098
