Time   Number   
ps   
0          26          27
10          25          26
20          26          30
30          28          28
40          25          27
50          25          27
60          25          27
70          21          30
80          23          31
90          24          30
100          26          25
110          31          25
120          29          24
130          24          28
140          27          30
150          24          29
160          22          27
170          28          26
180          25          25
190          25          27
200          24          23
210          27          28
220          22          30
230          28          20
240          23          26
250          24          28
260          27          26
270          22          30
280          26          24
290          25          22
300          25          30
310          27          30
320          24          27
330          27          22
340          24          33
350          30          27
360          27          27
370          26          24
380          27          25
390          26          24
400          25          23
410          22          37
420          20          30
430          22          31
440          19          35
450          27          25
460          25          28
470          26          30
480          22          31
490          25          27
500          25          31
510          22          32
520          24          30
530          25          33
540          27          28
550          24          30
560          20          31
570          25          28
580          26          29
590          27          28
600          25          26
610          26          26
620          20          34
630          24          30
640          25          35
650          26          25
660          21          36
670          23          24
680          27          29
690          20          29
700          21          26
710          19          24
720          24          28
730          22          30
740          22          25
750          22          21
760          23          25
770          24          18
780          19          22
790          19          22
800          22          25
810          23          26
820          22          30
830          24          24
840          22          24
850          20          28
860          20          25
870          22          22
880          20          23
890          19          27
900          17          26
910          20          25
920          22          23
930          24          21
940          18          23
950          21          24
960          18          26
970          21          26
980          20          23
990          23          26
1000          24          23
1010          26          21
1020          15          28
1030          25          18
1040          24          22
1050          21          22
1060          21          24
1070          22          23
1080          25          20
1090          22          23
1100          23          20
1110          20          30
1120          23          16
1130          26          25
1140          24          21
1150          22          24
1160          23          19
1170          20          25
1180          24          20
1190          25          16
1200          22          23
1210          23          22
1220          20          23
1230          25          19
1240          23          23
1250          24          22
1260          20          23
1270          23          23
1280          21          24
1290          22          22
1300          20          20
1310          23          20
1320          23          23
1330          22          16
1340          20          26
1350          22          25
1360          27          19
1370          22          23
1380          23          26
1390          21          28
1400          22          26
1410          19          24
1420          21          26
1430          23          24
1440          21          23
1450          21          26
1460          18          22
1470          22          20
1480          20          26
1490          18          25
1500          24          23
1510          19          21
1520          20          23
1530          19          27
1540          19          29
1550          22          24
1560          21          26
1570          24          25
1580          24          24
1590          23          26
1600          21          25
1610          22          26
1620          20          26
1630          24          23
1640          23          23
1650          22          30
1660          24          21
1670          20          32
1680          26          28
1690          23          27
1700          25          23
1710          24          29
1720          25          23
1730          24          30
1740          23          28
1750          22          27
1760          26          25
1770          21          21
1780          24          29
1790          24          16
1800          24          29
1810          24          26
1820          23          19
1830          21          25
1840          21          21
1850          21          23
1860          23          30
1870          20          34
1880          21          30
1890          24          25
1900          23          25
1910          19          29
1920          22          32
1930          21          29
1940          24          25
1950          22          29
1960          22          21
1970          21          33
1980          23          23
1990          21          27
2000          24          27
2010          24          24
2020          22          26
2030          21          31
2040          20          25
2050          20          29
2060          26          24
2070          22          26
2080          20          24
2090          23          29
2100          25          21
2110          22          30
2120          22          27
2130          21          28
2140          21          25
2150          21          29
2160          20          29
2170          19          28
2180          17          31
2190          24          22
2200          19          28
2210          22          24
2220          20          29
2230          22          21
2240          24          18
2250          25          21
2260          23          25
2270          23          26
2280          24          24
2290          25          23
2300          26          22
2310          20          30
2320          23          25
2330          25          23
2340          25          23
2350          22          22
2360          23          22
2370          23          22
2380          26          21
2390          21          27
2400          22          24
2410          22          27
2420          23          24
2430          20          25
2440          21          25
2450          24          19
2460          21          23
2470          22          25
2480          22          25
2490          22          26
2500          20          30
2510          24          19
2520          21          26
2530          22          24
2540          23          24
2550          20          30
2560          21          24
2570          18          27
2580          22          25
2590          18          29
2600          23          24
2610          21          28
2620          21          30
2630          23          26
2640          22          19
2650          21          26
2660          21          31
2670          24          22
2680          21          28
2690          23          22
2700          20          27
2710          23          29
2720          20          28
2730          21          26
2740          20          27
2750          20          27
2760          24          27
2770          24          33
2780          23          27
2790          19          27
2800          27          25
2810          23          32
2820          22          29
2830          23          31
2840          21          24
2850          24          28
2860          24          27
2870          23          24
2880          20          29
2890          22          21
2900          26          22
2910          22          29
2920          23          24
2930          22          31
2940          23          26
2950          20          28
2960          24          21
2970          22          25
2980          20          29
2990          22          27
3000          20          23
3010          21          27
3020          22          21
3030          22          25
3040          23          26
3050          20          22
3060          24          29
3070          20          26
3080          24          25
3090          24          28
3100          24          24
3110          24          28
3120          23          28
3130          20          25
3140          26          27
3150          26          25
3160          26          23
3170          19          31
3180          24          26
3190          26          25
3200          24          28
3210          24          31
3220          24          27
3230          21          29
3240          27          29
3250          27          22
3260          24          30
3270          25          22
3280          25          25
3290          26          23
3300          24          29
3310          23          28
3320          28          18
3330          26          24
3340          26          20
3350          20          21
3360          28          21
3370          24          26
3380          23          26
3390          20          29
3400          24          25
3410          25          24
3420          23          25
3430          23          29
3440          23          23
3450          25          27
3460          22          24
3470          20          29
3480          21          29
3490          23          24
3500          23          24
3510          21          30
3520          24          19
3530          22          25
3540          24          21
3550          23          25
3560          23          28
3570          24          25
3580          24          27
3590          19          29
3600          23          29
3610          21          30
3620          21          29
3630          23          23
3640          26          24
3650          23          28
3660          23          22
3670          25          23
3680          22          22
3690          25          25
3700          21          32
3710          23          28
3720          18          29
3730          22          26
3740          24          27
3750          20          28
3760          26          28
3770          23          24
3780          24          25
3790          21          22
3800          28          20
3810          21          25
3820          23          23
3830          23          23
3840          24          25
3850          21          25
3860          23          20
3870          21          24
3880          21          24
3890          20          28
3900          22          23
3910          22          26
3920          23          23
3930          23          26
3940          25          22
3950          26          20
3960          23          26
3970          21          27
3980          21          24
3990          23          25
4000          21          22
4010          22          22
4020          23          23
4030          22          23
4040          21          22
4050          25          22
4060          22          24
4070          18          28
4080          20          26
4090          26          20
4100          24          23
4110          24          18
4120          19          20
4130          23          23
4140          23          21
4150          22          25
4160          20          23
4170          22          22
4180          22          26
4190          18          27
4200          23          25
4210          24          27
4220          26          23
4230          24          23
4240          23          24
4250          22          20
4260          23          27
4270          23          24
4280          24          26
4290          25          26
4300          22          25
4310          24          23
4320          28          19
4330          26          22
4340          25          27
4350          27          26
4360          23          25
4370          24          26
4380          27          25
4390          24          28
4400          24          29
4410          23          32
4420          25          24
4430          25          26
4440          27          28
4450          27          27
4460          24          31
4470          21          30
4480          26          23
4490          22          28
4500          24          28
4510          23          29
4520          27          27
4530          28          26
4540          24          30
4550          26          24
4560          24          34
4570          28          25
4580          27          27
4590          24          30
4600          25          25
4610          23          28
4620          23          27
4630          27          22
4640          29          23
4650          24          27
4660          19          33
4670          24          28
4680          27          21
4690          25          22
4700          26          29
4710          28          24
4720          27          27
4730          25          30
4740          27          28
4750          27          25
4760          27          30
4770          26          21
4780          24          27
4790          25          28
4800          24          30
4810          27          25
4820          25          31
4830          24          34
4840          23          29
4850          26          30
4860          25          27
4870          24          35
4880          22          31
4890          25          34
4900          24          31
4910          25          30
4920          26          31
4930          26          26
4940          24          27
4950          22          32
4960          23          27
4970          24          26
4980          24          25
4990          27          26
5000          27          28
5010          25          27
5020          23          27
5030          24          26
5040          26          29
5050          29          24
5060          25          30
5070          25          28
5080          23          32
5090          24          27
5100          25          26
5110          25          26
5120          23          29
5130          27          26
5140          25          28
5150          22          33
5160          25          29
5170          25          27
5180          25          28
5190          23          30
5200          28          25
5210          23          29
5220          24          24
5230          24          31
5240          24          26
5250          25          29
5260          25          24
5270          25          27
5280          23          29
5290          24          29
5300          24          26
5310          26          25
5320          23          32
5330          22          35
5340          26          33
5350          26          25
5360          23          29
5370          22          31
5380          27          20
5390          23          31
5400          25          28
5410          26          28
5420          25          25
5430          16          35
5440          23          31
5450          26          33
5460          29          27
5470          24          26
5480          28          26
5490          25          29
5500          24          29
5510          23          29
5520          20          36
5530          26          28
5540          24          30
5550          21          32
5560          27          26
5570          24          29
5580          25          27
5590          26          30
5600          25          26
5610          23          31
5620          25          25
5630          27          26
5640          26          29
5650          21          30
5660          21          30
5670          24          29
5680          28          23
5690          23          29
5700          24          20
5710          24          29
5720          22          29
5730          24          23
5740          25          28
5750          23          24
5760          22          27
5770          23          23
5780          20          24
5790          24          26
5800          22          29
5810          22          31
5820          24          30
5830          25          27
5840          26          28
5850          26          23
5860          22          32
5870          24          32
5880          24          26
5890          20          35
5900          23          26
5910          24          30
5920          20          34
5930          23          26
5940          23          25
5950          21          29
5960          22          21
5970          24          31
5980          23          27
5990          20          29
6000          20          27
6010          22          31
6020          19          32
6030          21          25
6040          24          22
6050          22          27
6060          24          21
6070          22          26
6080          24          25
6090          23          23
6100          13          30
6110          21          23
6120          24          28
6130          24          22
6140          26          20
6150          22          28
6160          23          29
6170          22          27
6180          24          27
6190          23          23
6200          25          27
6210          23          25
6220          24          30
6230          22          32
6240          25          25
6250          23          28
6260          23          32
6270          23          28
6280          20          28
6290          23          31
6300          23          30
6310          24          29
6320          21          29
6330          22          29
6340          25          26
6350          19          26
6360          25          21
6370          23          22
6380          17          31
6390          24          24
6400          23          22
6410          20          24
6420          23          27
6430          24          25
6440          22          29
6450          21          23
6460          22          24
6470          26          27
6480          23          24
6490          26          23
6500          26          22
6510          20          24
6520          21          18
6530          25          20
6540          23          24
6550          19          29
6560          20          23
6570          20          24
6580          20          22
6590          22          26
6600          22          22
6610          21          25
6620          21          23
6630          19          26
6640          23          22
6650          22          23
6660          20          30
6670          19          23
6680          21          21
6690          20          21
6700          25          19
6710          19          21
6720          19          24
6730          19          23
6740          18          21
6750          16          28
6760          21          19
6770          21          24
6780          15          21
6790          16          25
6800          23          20
6810          22          25
6820          22          22
6830          19          25
6840          21          25
6850          20          22
6860          19          27
6870          21          22
6880          20          23
6890          21          15
6900          19          29
6910          20          31
6920          19          22
6930          21          22
6940          24          20
6950          24          20
6960          18          26
6970          24          15
6980          23          22
6990          24          25
7000          23          18
7010          22          21
7020          21          24
7030          19          17
7040          20          23
7050          21          20
7060          21          20
7070          23          23
7080          20          27
7090          22          23
7100          24          21
7110          22          27
7120          21          24
7130          23          18
7140          24          23
7150          24          23
7160          20          26
7170          21          28
7180          21          26
7190          23          28
7200          24          27
7210          21          29
7220          21          32
7230          24          27
7240          21          27
7250          23          29
7260          24          27
7270          23          24
7280          19          26
7290          25          23
7300          22          25
7310          25          22
7320          22          31
7330          21          28
7340          23          28
7350          20          26
7360          24          24
7370          22          25
7380          24          24
7390          25          22
7400          18          22
7410          20          26
7420          19          26
7430          24          21
7440          20          24
7450          22          24
7460          21          24
7470          26          23
7480          21          32
7490          26          20
7500          23          22
7510          21          24
7520          22          25
7530          19          25
7540          19          22
7550          19          24
7560          19          23
7570          23          20
7580          22          25
7590          23          23
7600          23          25
7610          19          31
7620          18          26
7630          21          24
7640          21          25
7650          22          23
7660          21          24
7670          19          24
7680          22          25
7690          27          27
7700          27          29
7710          24          27
7720          24          28
7730          28          26
7740          23          30
7750          26          26
7760          21          32
7770          18          35
7780          22          30
7790          22          33
7800          21          29
7810          26          27
7820          20          25
7830          23          21
7840          22          23
7850          20          30
7860          25          25
7870          21          32
7880          23          26
7890          22          25
7900          22          34
7910          26          25
7920          23          24
7930          21          27
7940          23          31
7950          25          24
7960          24          25
7970          24          24
7980          22          25
7990          20          23
8000          23          20
8010          23          21
8020          24          22
8030          23          24
8040          23          23
8050          21          24
8060          26          25
8070          24          21
8080          20          27
8090          21          23
8100          19          27
8110          21          29
8120          24          26
8130          23          26
8140          21          27
8150          26          23
8160          22          22
8170          26          22
8180          22          28
8190          21          28
8200          23          25
8210          19          22
8220          18          25
8230          20          25
8240          20          23
8250          20          22
8260          20          25
8270          23          23
8280          24          25
8290          20          24
8300          23          25
8310          24          22
8320          24          23
8330          21          25
8340          25          23
8350          21          23
8360          24          22
8370          25          26
8380          20          28
8390          19          27
8400          19          27
8410          24          25
8420          20          28
8430          21          27
8440          21          25
8450          23          26
8460          24          28
8470          23          25
8480          23          22
8490          19          27
8500          23          19
8510          20          23
8520          20          26
8530          22          22
8540          23          23
8550          24          26
8560          25          21
8570          21          24
8580          24          21
8590          22          28
8600          21          24
8610          24          24
8620          22          20
8630          22          22
8640          21          20
8650          22          21
8660          26          24
8670          21          22
8680          24          26
8690          21          27
8700          22          25
8710          21          26
8720          22          26
8730          23          24
8740          25          23
8750          19          30
8760          25          24
8770          21          29
8780          25          21
8790          24          31
8800          23          28
8810          25          28
8820          26          24
8830          23          28
8840          23          27
8850          19          33
8860          25          20
8870          22          26
8880          19          29
8890          22          25
8900          24          23
8910          23          24
8920          24          28
8930          22          24
8940          22          28
8950          21          25
8960          23          28
8970          20          31
8980          25          27
8990          26          24
9000          22          30
9010          24          21
9020          24          27
9030          25          24
9040          22          32
9050          22          28
9060          22          30
9070          21          25
9080          26          23
9090          22          24
9100          24          26
9110          21          26
9120          21          23
9130          23          24
9140          24          27
9150          26          37
9160          26          28
9170          20          30
9180          24          24
9190          24          25
9200          26          24
9210          24          27
9220          22          28
9230          25          23
9240          26          23
9250          26          25
9260          23          31
9270          27          27
9280          23          33
9290          23          35
9300          20          26
9310          27          28
9320          20          35
9330          22          31
9340          24          29
9350          23          31
9360          26          27
9370          21          26
9380          24          29
9390          21          36
9400          22          28
9410          24          17
9420          18          31
9430          22          26
9440          26          29
9450          24          22
9460          26          24
9470          25          25
9480          22          27
9490          25          22
9500          18          28
9510          19          31
9520          24          26
9530          17          26
9540          19          29
9550          23          29
9560          23          34
9570          19          32
9580          23          31
9590          19          24
9600          25          26
9610          23          27
9620          25          30
9630          21          34
9640          24          33
9650          23          27
9660          21          31
9670          27          34
9680          23          28
9690          21          37
9700          26          27
9710          25          29
9720          23          27
9730          26          30
9740          24          30
9750          23          27
9760          28          31
9770          23          31
9780          22          31
9790          22          31
9800          26          25
9810          23          27
9820          22          29
9830          23          27
9840          24          26
9850          25          31
9860          23          31
9870          22          27
9880          27          26
9890          23          29
9900          27          26
9910          24          33
9920          21          31
9930          24          29
9940          24          22
9950          20          34
9960          22          34
9970          23          36
9980          20          31
9990          23          31
10000          20          29
