Time   C(t)   
ps   
0           1           1  2.86519e-10   0.0201498
10     0.80151    0.813523   -0.301722    0.011303
20    0.773939     0.78762   -0.819111   0.0024563
30    0.752384     0.76737    0.022783  0.00201487
40    0.733642    0.749762     1.49621  0.00177714
50    0.716841    0.733978      1.1898  0.00158661
60     0.70191     0.71995     1.36091  0.00139638
70    0.688914     0.70774     1.83937  0.00121173
80    0.677675    0.697182     2.41219  0.00113303
90    0.666253    0.686451     2.98629  0.00111212
100    0.655433    0.676286     2.00955   0.0010621
110    0.645011    0.666495     1.03166    0.001026
120    0.634913    0.657008     1.66224  0.00101393
130    0.624733    0.647444      1.5862  0.000963569
140    0.615641    0.638903    0.685545  0.000860488
150    0.607523    0.631275     1.81412  0.000853127
160    0.598579    0.622873   -0.579511  0.000886285
170    0.589797    0.614622    0.626171  0.000787732
180    0.582824    0.608071     1.25653  0.000743777
190    0.574922    0.600647    0.912234  0.000706676
200    0.568691    0.594793    0.929763  0.000628906
210    0.562343     0.58883    0.220799  0.000731009
220     0.55407    0.581058    0.661135  0.000653908
230    0.549265    0.576544    0.717256  0.000641137
240    0.541248    0.569011    0.467915  0.000691319
250    0.535439    0.563554   -0.586074  0.00059064
260    0.529435    0.557913   -0.471327  0.000591835
270    0.523602    0.552434   -0.147477  0.000605395
280    0.517327    0.546538    0.235505  0.000673217
290    0.510138    0.539784   -0.837453  0.00067248
300    0.503877    0.533903   -0.588897  0.000595929
310    0.498219    0.528587   0.0611782  0.000568387
320     0.49251    0.523223   0.0805771  0.000549982
330     0.48722    0.518253   -0.648814  0.000588238
340    0.480745     0.51217   -0.303788  0.000594535
350    0.475329    0.507082   -0.246733  0.00052564
360    0.470232    0.502293    0.155049  0.000520572
370    0.464917      0.4973     1.03531  0.000471932
380    0.460793    0.493426    0.823982  0.000426404
390    0.456389    0.489288    0.307041  0.000506105
400    0.450671    0.483916     0.49813  0.000471778
410    0.446954    0.480424    0.152506  0.000428206
420    0.442107    0.475871     0.42003  0.000415514
430    0.438644    0.472617    0.113092  0.000409181
440    0.433924    0.468182   -0.346288  0.000426616
450    0.430111    0.464601   -0.481162  0.000418167
460     0.42556    0.460325    0.762738  0.000496331
470    0.420185    0.455275    0.686059  0.000472228
480    0.416116    0.451452    0.838407  0.000398983
490    0.412205    0.447778     1.54655  0.000443831
500    0.407239    0.443113    0.321205  0.000454134
510    0.403122    0.439245     1.83291  0.000406885
520    0.399101    0.435467    0.282407  0.000440298
530    0.394316    0.430972    0.626554  0.00040016
540    0.391098    0.427949    0.702541  0.000355813
550      0.3872    0.424286    0.472486  0.000392367
560    0.383251    0.420576    0.510592  0.00044491
570    0.378302    0.415927     1.12318  0.00036234
580    0.376004    0.413768     1.02635  0.000306164
590    0.372179    0.410174     1.40876  0.000358577
600    0.368833     0.40703     1.17904  0.000379522
610    0.364588    0.403043      1.5618  0.000373934
620    0.361354    0.400004     1.46536  0.00032274
630    0.358133    0.396979     1.12043  0.000382963
640    0.353695    0.392809     1.50358  0.000398616
650    0.350161    0.389489     1.02415  0.000365424
660    0.346386    0.385942    0.334489  0.000401352
670    0.342134    0.381948    0.602331  0.000347777
680    0.339431    0.379408    0.564113  0.000342208
690     0.33529    0.375518    0.927566  0.000386682
700    0.331697    0.372142    0.601546  0.000365087
710    0.327988    0.368658    0.888787  0.000349803
720    0.324701     0.36557    0.562618  0.000295815
730    0.322072      0.3631     1.72991  0.000325516
740    0.318191    0.359453      1.9214  0.000416493
750    0.313742    0.355274     0.48536  0.000297812
760    0.312234    0.353858     1.09692  0.000286786
770    0.308006    0.349885     1.63324  0.000387625
780    0.304482    0.346574     1.24985  0.000356075
790    0.300885    0.343195     1.11529  0.000306013
800    0.298362    0.340824      1.0578  0.000287254
810     0.29514    0.337797    0.655367  0.000337732
820    0.291607    0.334478    0.291279  0.000296128
830    0.289217    0.332233    0.405708  0.000262053
840    0.286366    0.329555   -0.169353  0.000326747
850    0.282682    0.326094    0.366836  0.00032853
860    0.279795    0.323382    0.500327  0.000284621
870     0.27699    0.320746    0.863517  0.000331029
880    0.273175    0.317162    0.289204  0.000301139
890    0.270967    0.315088    0.231083  0.000228637
900    0.268602    0.312866   -0.152497  0.000292602
910    0.265115     0.30959   -0.286138  0.000301968
920    0.262563    0.307192   0.0964886  0.000261001
930    0.259895    0.304686    -1.03379  0.000227527
940    0.258012    0.302917    -1.01502  0.000228044
950    0.255334    0.300401   -0.153694  0.000274731
960    0.252517    0.297755   -0.709431  0.00028418
970     0.24965    0.295061   -0.479601  0.000241754
980    0.247682    0.293212   -0.422527  0.000181598
990    0.246018    0.291649   -0.997532  0.00024951
1000    0.242692    0.288524   -0.326749  0.000266551
1010    0.240687    0.286641   -0.423443  0.000240603
1020     0.23788    0.284003   0.0940388  0.000196728
1030    0.236753    0.282944  -0.0599725  0.000199491
1040     0.23389    0.280255    0.341996  0.000196508
1050    0.232823    0.279252    0.206972  0.000171436
1060    0.230461    0.277034    0.111194  0.000254221
1070    0.227738    0.274475    0.455883  0.000304966
1080    0.224362    0.271303    0.111288  0.000224075
1090    0.223257    0.270265   -0.980975  0.00014757
1100    0.221411    0.268531     0.55039  0.000208286
1110    0.219091    0.266351    0.358908  0.000238995
1120    0.216631     0.26404   0.0143877  0.000158776
1130    0.215915    0.263368    0.836939  0.000142377
1140    0.213783    0.261365    0.683432  0.000217935
1150    0.211557    0.259273    0.530392  0.000215045
1160    0.209482    0.257324    0.951068  0.000191881
1170    0.207719    0.255668     1.12315  0.000209255
1180    0.205297    0.253392     1.60174  0.000222135
1190    0.203276    0.251494     1.44803  0.000197773
1200    0.201342    0.249676     1.25668  0.000176708
1210    0.199742    0.248173     1.21801  0.000169206
1220    0.197958    0.246497     1.69673  0.000184332
1230    0.196056     0.24471     1.73467  0.000164308
1240    0.194672     0.24341     2.07923  0.000164706
1250    0.192762    0.241615     2.23173  0.000196923
1260    0.190733     0.23971     2.09768  0.000217899
1270    0.188404    0.237521     2.26974  0.000183001
1280    0.187073    0.236271     2.15477  0.000156039
1290    0.185283    0.234589     2.11646  0.000150655
1300     0.18406     0.23344     2.09721  0.000175093
1310    0.181781    0.231299     2.48038  0.000219014
1320     0.17968    0.229325     2.13526  0.000170177
1330    0.178377    0.228102     2.34558  0.000164855
1340    0.176383    0.226228     2.05817  0.000210066
1350    0.174176    0.224155     1.78991  0.000165615
1360     0.17307    0.223116      2.1341  0.000155688
1370    0.171062    0.221229      1.1963  0.000191794
1380    0.169234    0.219512     1.61731  0.000130987
1390    0.168443    0.218768     1.65539  0.000184581
1400    0.165543    0.216044     1.80838  0.00019995
1410    0.164444    0.215011     2.17215  0.00014137
1420    0.162715    0.213387     2.09536  0.000118433
1430    0.162075    0.212786     2.07596  9.31956e-05
1440    0.160852    0.211636     1.97988  0.000166713
1450    0.158741    0.209653     1.42444  0.000170544
1460    0.157441    0.208432     1.19444  9.86606e-05
1470    0.156767    0.207799     1.17495  0.000110614
1480    0.155228    0.206354      1.8255  0.000155254
1490    0.153662    0.204882      1.5573  0.000198939
1500     0.15125    0.202616    0.868388  0.000202873
1510    0.149605     0.20107     1.32769  0.000152931
1520    0.148191    0.199742    0.867752  0.000112183
1530    0.147361    0.198962    0.656928  0.000137191
1540    0.145447    0.197164    0.580268  0.000222242
1550    0.142916    0.194787    0.637922  0.000172033
1560    0.142006    0.193932    0.101714  0.000112341
1570     0.14067    0.192676    0.522914  0.000120847
1580     0.13959    0.191661     1.02029  0.000138896
1590    0.137892    0.190066     1.57529  0.000123796
1600    0.137114    0.189335     1.44096  0.00013482
1610    0.135195    0.187533     2.16861  0.000160006
1620    0.133914    0.186329     2.01515  0.000104553
1630    0.133104    0.185568      1.6319  0.000111975
1640    0.131674    0.184225     2.43599  0.000121737
1650    0.130669    0.183281     2.03394  0.00010893
1660    0.129495    0.182178     2.34006  0.000130682
1670    0.128056    0.180825     2.53136  0.000132177
1680    0.126852    0.179694     2.32055  0.00011455
1690    0.125765    0.178673     2.09044  7.04691e-05
1700    0.125442     0.17837     2.28162  0.000115101
1710    0.123463     0.17651     2.81781  0.000177771
1720    0.121887     0.17503     2.53038  0.00014453
1730    0.120572    0.173795     2.54948  0.000126831
1740     0.11935    0.172647     2.49187  0.000107851
1750    0.118415    0.171768     1.82155  0.000135903
1760    0.116632    0.170093     2.64519  0.000104738
1770     0.11632      0.1698     2.33802  4.33389e-05
1780    0.115766    0.169279     2.70174  6.64707e-05
1790    0.114991    0.168551     2.35703  7.87493e-05
1800    0.114191    0.167799     2.47187  6.07114e-05
1810    0.113777    0.167411     2.81602  9.61721e-05
1820    0.112267    0.165992     2.51003  0.000117037
1830    0.111436    0.165211     2.70125  0.000110054
1840    0.110066    0.163924     3.27594  0.000106629
1850    0.109303    0.163208     3.35213  7.26961e-05
1860    0.108612    0.162559     3.08365  7.89981e-05
1870    0.107723    0.161724     3.61967  9.51122e-05
1880     0.10671    0.160771     3.04525  0.000102701
1890    0.105669    0.159794     3.52361  8.45283e-05
1900    0.105019    0.159183     3.44684  8.23006e-05
1910    0.104023    0.158247     3.12152  0.000109573
1920    0.102828    0.157124     3.12114  8.88713e-05
1930    0.102246    0.156578     3.12131   5.209e-05
1940    0.101786    0.156146     2.73769  8.80796e-05
1950    0.100484    0.154923     3.25471   0.0001229
1960   0.0993281    0.153836     2.89053  0.000135605
1970   0.0977723    0.152375      2.9673  9.86963e-05
1980   0.0973542    0.151982     3.15822  6.67177e-05
1990    0.096438    0.151121     3.54129  9.29743e-05
2000   0.0954947    0.150235      3.4455  0.000124338
2010   0.0939512    0.148785     3.46475  0.000115886
2020    0.093177    0.148057     4.05792  8.0014e-05
2030   0.0923509    0.147281     3.42602   9.146e-05
2040   0.0913478    0.146339     3.44495  9.04273e-05
2050   0.0905424    0.145582     4.00004  0.000125767
2060   0.0888325    0.143976     4.13426  0.000107199
2070   0.0883984    0.143568      3.9618  7.23645e-05
2080   0.0873852    0.142616     4.05739  8.50983e-05
2090   0.0866965    0.141969     3.59758  8.65951e-05
2100   0.0856533    0.140989     3.04252  6.40862e-05
2110   0.0854147    0.140765     4.03745  5.29371e-05
2120   0.0845945    0.139994     3.65425  7.20043e-05
2130   0.0839746    0.139412      3.5779  5.06721e-05
2140   0.0835811    0.139042     3.99875  8.88433e-05
2150   0.0821978    0.137743     3.84586  8.13909e-05
2160   0.0819533    0.137513     3.65408  7.91356e-05
2170   0.0806151    0.136256     3.25216  0.000103443
2180   0.0798844    0.135569     3.30957  0.000121588
2190   0.0781833    0.133971     2.65864  7.97339e-05
2200   0.0782897    0.134071     2.81138  1.61815e-05
2210   0.0778597    0.133667      3.0789  9.54952e-05
2220   0.0763798    0.132277     3.36609  9.69514e-05
2230   0.0759206    0.131845     3.21303  8.57238e-05
2240   0.0746653    0.130666     2.92571  0.000125701
2250   0.0734066    0.129484     3.57667  0.000113172
2260   0.0724019     0.12854     3.15558  0.000105754
2270   0.0712916    0.127497     3.07875  0.000107307
2280   0.0702557    0.126523     3.02138  8.17765e-05
2290    0.069656     0.12596     2.40838  8.33124e-05
2300   0.0685895    0.124958     2.67669  0.00010291
2310   0.0675978    0.124026     2.63802  8.11532e-05
2320   0.0669664    0.123433     2.65681  5.93323e-05
2330   0.0664112    0.122911     2.88628  4.39037e-05
2340   0.0660884    0.122608     2.57998  6.35497e-05
2350   0.0651402    0.121717     2.02452  0.000100144
2360   0.0640855    0.120727     2.21621  9.1267e-05
2370   0.0633148    0.120003     1.73743  6.01858e-05
2380   0.0628818    0.119596     1.66036  5.64411e-05
2390    0.062186    0.118942     1.50739  8.2759e-05
2400   0.0612266    0.118041     1.87109  6.98525e-05
2410    0.060789     0.11763     1.48781  5.16903e-05
2420   0.0601928    0.117069     1.54505  0.000108339
2430   0.0586222    0.115594     1.29623  0.000111197
2440   0.0579688     0.11498     1.41074  7.99181e-05
2450   0.0570238    0.114092     1.25759  0.000135539
2460    0.055258    0.112433     1.46828  9.48803e-05
2470   0.0551262    0.112309     1.64001  5.42182e-05
2480   0.0541737    0.111415     1.60203  9.80346e-05
2490   0.0531655    0.110467     1.83168  0.000108907
2500   0.0519955    0.109368      1.8889  0.000111843
2510   0.0509287    0.108366     1.77398  9.2198e-05
2520   0.0501516    0.107636     1.90817  6.98129e-05
2530   0.0495324    0.107054     2.09927  7.80158e-05
2540   0.0485913     0.10617     1.63958  7.82045e-05
2550   0.0479683    0.105585     1.71622  9.31438e-05
2560   0.0467284     0.10442      1.7546  7.99656e-05
2570    0.046369    0.104082     1.33288  6.41516e-05
2580   0.0454454    0.103215     1.56264  6.15969e-05
2590   0.0451371    0.102925     1.44757  6.31426e-05
2600   0.0441825    0.102028    0.681665  6.86593e-05
2610   0.0437639    0.101635     1.06468  6.88862e-05
2620   0.0428048    0.100734     1.08371  2.17777e-05
2630   0.0433283    0.101226     1.06422  4.76256e-05
2640   0.0418523   0.0998389    0.757951  8.14663e-05
2650    0.041699   0.0996949    0.700278  4.65304e-05
2660   0.0409217   0.0989646      1.2557  9.68466e-05
2670   0.0397621   0.0978752    0.719565  8.07673e-05
2680   0.0393063    0.097447    0.451368  6.60608e-05
2690   0.0384409   0.0966339     1.00643  7.43961e-05
2700   0.0378184   0.0960491     1.14054  6.23301e-05
2710   0.0371943   0.0954628      0.6615  6.9339e-05
2720   0.0364316   0.0947463    0.642288  6.40446e-05
2730   0.0359134   0.0942594    0.431707  8.75371e-05
2740   0.0346809   0.0931015     1.00606  8.4986e-05
2750   0.0342136   0.0926625    0.756941  3.57937e-05
2760    0.033965   0.0924289    0.986566  5.37988e-05
2770   0.0331377   0.0916517    0.795122  6.90671e-05
2780   0.0325837   0.0911312    0.622515  8.4462e-05
2790   0.0314484   0.0900647    0.890769  5.4252e-05
2800   0.0314986   0.0901118     1.02471  2.1265e-05
2810   0.0310231   0.0896651    0.928893  3.79174e-05
2820   0.0307403   0.0893994    0.813922  4.91432e-05
2830   0.0300403   0.0887417    0.890376  5.20315e-05
2840   0.0296996   0.0884217     1.02419  4.66375e-05
2850   0.0291075   0.0878654    0.315745  5.6505e-05
2860   0.0285695     0.08736    0.660527  7.20152e-05
2870   0.0276672   0.0865123     0.52627  5.12284e-05
2880    0.027545   0.0863975    0.641241  6.96257e-05
2890   0.0262747    0.085204    0.909364  9.49682e-05
2900   0.0256456    0.084613    0.775256  4.1945e-05
2910   0.0254358   0.0844159    0.736832  3.50672e-05
2920   0.0249443   0.0839541    0.583587  6.61089e-05
2930   0.0241136   0.0831738    0.679234  6.90908e-05
2940   0.0235625    0.082656    0.583251  6.08419e-05
2950   0.0228968   0.0820306    0.392143  2.70788e-05
2960   0.0230209   0.0821472    0.430006  8.81162e-06
2970   0.0227205    0.081865    0.698109  3.57429e-05
2980    0.022306   0.0814756   0.0855223  5.4288e-05
2990   0.0216348   0.0808449  -0.0291869  2.31492e-05
3000    0.021843   0.0810406   -0.106165  5.02449e-07
3010   0.0216247   0.0808355    -0.14442  4.89448e-05
3020   0.0208641   0.0801209    -0.33577  3.1912e-05
3030   0.0209865   0.0802359   -0.412542  6.13835e-07
3040   0.0208519   0.0801094    0.200063  9.18787e-06
3050   0.0208027   0.0800633   -0.087271  1.78247e-05
3060   0.0204954   0.0797745    -0.31712  1.9295e-05
3070   0.0204168   0.0797007   -0.202223   3.087e-05
3080    0.019878   0.0791944   -0.757474  3.95654e-05
3090   0.0196255   0.0789573  -0.0873831   5.845e-05
3100    0.018709   0.0780962    0.161378  6.00151e-05
3110   0.0184252   0.0778296    0.774003  8.16686e-06
3120   0.0185456   0.0779427    0.524737  5.89168e-05
3130   0.0172469   0.0767226    0.161509  6.18871e-05
3140   0.0173079   0.0767799    0.180384  1.56802e-05
3150   0.0169333    0.076428    0.256782  3.31512e-05
3160   0.0166449    0.076157    0.314174  4.6367e-05
3170    0.016006   0.0755568  0.00794617  7.71177e-05
3180   0.0151025    0.074708    0.563441  6.56355e-05
3190   0.0146932   0.0743235     0.35243  3.36715e-05
3200   0.0144291   0.0740753     0.48622  4.11087e-05
3210   0.0138711   0.0735511    0.830853  3.0933e-05
3220   0.0138104   0.0734941    0.486257  2.95924e-05
3230   0.0132792   0.0729951    0.581923  6.49737e-05
3240   0.0125109   0.0722733    0.390273  6.21987e-05
3250   0.0120352   0.0718264    0.620253  3.73092e-05
3260   0.0117648   0.0715723      0.9074  3.44784e-05
3270   0.0113457   0.0711785    0.696726  5.38162e-05
3280   0.0106884   0.0705611    0.256128  6.87902e-05
3290  0.00996987    0.069886    0.389937  6.00817e-05
3300  0.00948681   0.0694322   0.0261485  6.0278e-05
3310  0.00876431   0.0687534    0.294439  5.29902e-05
3320    0.008427   0.0684365    0.217686  5.46719e-05
3330  0.00767087   0.0677261    0.160181  5.77946e-05
3340  0.00727111   0.0673506    0.485696  5.79936e-05
3350    0.006511   0.0666364   0.0644969  4.46537e-05
3360  0.00637804   0.0665115     0.25566  2.08224e-05
3370  0.00609455   0.0662452  -0.0506422  2.9891e-05
3380  0.00578022   0.0659499  -0.0315428  4.38518e-06
3390  0.00600685   0.0661628    0.561664  5.26901e-05
3400  0.00472642   0.0649599    0.274648  8.44451e-05
3410  0.00431795   0.0645761    0.389526  4.9983e-05
3420  0.00372676   0.0640207   -0.127471  4.40644e-05
3430  0.00343666   0.0637482  0.00659984  1.53999e-05
3440  0.00341876   0.0637313   -0.108408  3.67362e-05
3450  0.00270194   0.0630579    0.389432  6.57068e-05
3460  0.00210462   0.0624967   -0.089122  3.54378e-05
3470  0.00199318    0.062392   0.0256247  -7.15136e-06
3480  0.00224765   0.0626311    0.101986  2.03702e-05
3490  0.00158578   0.0620093   -0.223398  4.63877e-05
3500   0.0013199   0.0617595    0.255212  3.58282e-05
3510  0.000869214   0.0613361    0.101985  5.58884e-05
3520  0.000202129   0.0607094    0.389301  3.1436e-05
3530  0.000240493   0.0607454   0.0447057  1.00226e-05
3540  1.67731e-06   0.0605211    0.446656  4.08876e-05
3550  -0.000577259   0.0599772    0.293411  4.87129e-05
3560  -0.000972581   0.0596058    0.312697  1.32852e-05
3570  -0.000842964   0.0597275    0.542415  5.61779e-06
3580  -0.00108494   0.0595002    0.484948  3.19981e-05
3590  -0.00148293   0.0591263    0.312436  3.36403e-05
3600  -0.00175774   0.0588681  -0.0321786  1.03947e-05
3610  -0.00169082    0.058931    0.159172  2.44925e-05
3620  -0.00224759   0.0584079    0.197577  4.01428e-05
3630  -0.00249368   0.0581767   0.0826806  3.40343e-05
3640  -0.00292828   0.0577684  -0.0320292  -3.49339e-07
3650  -0.00248669   0.0581833  0.00596441  1.69848e-05
3660  -0.00326797   0.0574493    0.331516  3.58054e-05
3670  -0.0032028   0.0575105   0.0442197  2.65381e-05
3680  -0.00379874   0.0569506    0.254857  5.96872e-05
3690  -0.00439654    0.056389    0.503711  3.77636e-05
3700  -0.00455401   0.0562411    0.427051  7.85976e-06
3710  -0.00455374   0.0562413    0.235551  3.48341e-05
