Time   C(t)   
ps   
0           1           1  1.11218e-09   0.0855642
10    0.146091    0.911208   -0.681087   0.0429214
20    0.141572    0.910738   -0.682167  0.000278639
30    0.140519    0.910628   -0.190808  0.00100347
40    0.121502    0.908651   0.0558021  0.00126574
50    0.115204    0.907996    -1.29575  2.07502e-05
60    0.121087    0.908608   -0.374985  -0.00032739
70    0.121752    0.908677   -0.129995  0.000922386
80     0.10264    0.906689   -0.804752  0.000864979
90    0.104452    0.906878   -0.436817  -0.000210426
100    0.106848    0.907127    -1.60449  0.000110085
110     0.10225    0.906649   -0.805712  0.00110278
120   0.0847925    0.904834    0.423677  0.000870453
130   0.0848413    0.904839   -0.621295  0.000258633
140   0.0796199    0.904296   0.0545425  -3.39054e-05
150   0.0855194    0.904909    0.116435  -0.00015087
160   0.0826373     0.90461   -0.867125  0.00043547
170     0.07681    0.904004    0.299952  -0.000239459
180   0.0874265    0.905107    -0.49937  0.000113783
190   0.0745343    0.903767    0.791432  0.00137875
200   0.0598515     0.90224  -0.0684028  -3.3132e-05
210    0.075197    0.903836    -0.49997  -0.000474162
220   0.0693347    0.903226    -0.49949  0.00117747
230   0.0516476    0.901387   -0.560182  0.000588088
240   0.0575729    0.902003    -1.66669  0.000649766
250   0.0386523    0.900036   -0.805232  0.000412771
260   0.0493175    0.901145    0.115774  2.95492e-05
270   0.0380613    0.899974   -0.990249  0.000562895
280   0.0380596    0.899974  -0.00717037  0.000356653
290   0.0309283    0.899233    -1.54308  0.00053541
300   0.0273514    0.898861   -0.683307  0.000209309
310   0.0267421    0.898797   -0.559942  -0.000386317
320   0.0350778    0.899664   0.0533422  -0.000655211
330   0.0398463     0.90016    -1.23728  0.000239316
340   0.0302914    0.899166   -0.376725  0.00140503
350   0.0117457    0.897238    0.914977  6.07605e-05
360   0.0290762     0.89904    -0.74514  0.000332378
370  0.00509816    0.896547  -0.00663028  0.000900747
380   0.0110613    0.897167   -0.560122  -0.000897279
390   0.0230437    0.898413   -0.192908  0.000273337
400  0.00559456    0.896598   0.0543619  0.000934423
410  0.00435527    0.896469    0.300072  -0.000327821
420    0.012151     0.89728    0.176528  -0.00135316
430   0.0314184    0.899284     0.23728  9.32904e-05
440   0.0102852    0.897086    -0.99109  0.000484107
450   0.0217362    0.898277   -0.685168  0.00112201
460   -0.012155    0.894753   -0.867725  0.00145502
470  -0.00736407    0.895251   -0.929917  -0.00050993
480  -0.00195638    0.895813    -1.54464  -0.000146857
490  -0.00442692    0.895556    -1.42092  -0.0002386
500  0.00281562    0.896309   -0.868865  -0.000238715
510  0.000347367    0.896053    -1.05322  0.00119071
520  -0.0209985    0.893833     -1.2365  0.000704909
530  -0.0137508    0.894587  -0.0697828  -0.00124416
540  0.00388466    0.896421   -0.131675  0.000341262
550  -0.0205761    0.893877    -1.85176  0.000278725
560  -0.00168983    0.895841    -1.42212  -0.000146685
570  -0.0176424    0.894182    -1.85104  0.000831216
580  -0.0183142    0.894112      -1.913  -0.00118982
590  0.00615402    0.896657   -0.807992  0.000282336
600  -0.0239609    0.893525    -1.91384  0.00114044
610  -0.0166547    0.894285   -0.685227  -0.000762316
620  -0.00871456     0.89511    0.481669  -0.000240463
630  -0.0118454    0.894785   -0.623935  -0.000457281
640  0.000431056    0.896061    -1.85404  0.00015964
650  -0.0150382    0.894453   -0.439458  0.000343899
660  -0.00644693    0.895346   -0.685887  0.000686079
670  -0.0287598    0.893026    -1.05454  0.000778796
680  -0.0220228    0.893727   -0.869525  -0.000643489
690    -0.01589    0.894364    -2.16123  0.000533891
700  -0.0327007    0.892616    0.666987  9.89939e-05
710  -0.0178699    0.894158    -1.42356  -0.0008628
720  -0.0154447    0.894411    -1.91402  0.000473015
730  -0.0273302    0.893175    -1.72978  0.000660141
740  -0.0286475    0.893038    -1.60707  -0.000647989
750  -0.0143705    0.894522    -1.11619  -0.000305064
760  -0.0225462    0.893672   -0.931897  0.000818634
770  -0.0307431     0.89282   -0.931057  -0.000243616
780  -0.0176739    0.894179    -1.30115  -0.000399845
790  -0.0227462    0.893651   -0.809072  -2.525e-05
800  -0.0171689    0.894231   -0.931897  0.000352125
810  -0.0297887    0.892919   -0.686367  0.000917485
820  -0.0355186    0.892323    -1.11625  -0.00062185
830  -0.0173517    0.894212    -0.99373  -0.000275257
840  -0.0300134    0.892896   -0.440957  0.000447536
850  -0.0263025    0.893282    0.603954  -0.000687053
860  -0.0162724    0.894325    -1.66999  -5.60316e-05
870  -0.0251818    0.893398   -0.564142  0.00117655
880  -0.0398033    0.891878    -1.79233  0.000228712
890  -0.0297561    0.892922   -0.441078  0.00013545
900  -0.0425123    0.891596    -0.50171  0.00029317
910  -0.0356195    0.892313    -1.30151  0.000199593
920  -0.0465042    0.891181    -1.97645  0.000517124
930  -0.0459619    0.891237   -0.441378  0.00039159
940   -0.054336    0.890367    -1.66951  0.00051936
950  -0.0563491    0.890157    -1.17863  0.000616605
960  -0.0666681    0.889084    -1.24004  -0.00030899
970  -0.0501693      0.8908    -1.67083  -0.00107586
980  -0.0451508    0.891322    -2.46913  -0.000118225
990  -0.0478048    0.891046    -1.73236  0.000522283
1000  -0.0555965    0.890235    -2.10149  0.000234329
1010  -0.0524914    0.890558    -1.60977  0.000910005
1020  -0.0737966    0.888343    -1.54668  0.000106675
1030  -0.0546249    0.890337   -0.809972  -0.000244991
1040  -0.0688968    0.888852    -2.09945  -0.000376515
1050  -0.0470946     0.89112    -2.03954  -0.000601215
1060  -0.0568725    0.890103    -1.54722  0.000203605
1070  -0.0511667    0.890696   -0.319573  0.000269553
1080  -0.0622635    0.889542   -0.380145  -0.000313805
1090  -0.0448906    0.891349   -0.627295  -0.000118311
1100  -0.0598973    0.889788     -1.7323  0.00017162
1110   -0.048323    0.890992    -1.73308  -0.000541285
1120  -0.0490716    0.890914    -1.97909  0.000595368
1130  -0.0602304    0.889754    -1.67101  -0.000380871
1140  -0.0414542    0.891706     -2.9013  -0.000510446
1150  -0.0500214    0.890815    -2.04008  0.000107048
1160  -0.0435951    0.891483    -2.34786  0.00063085
1170  -0.0626384    0.889503    -3.02364  0.00157946
1180  -0.0751843    0.888199    -2.89956  0.000535496
1190  -0.0733483     0.88839    -3.08433  -0.00047892
1200   -0.065606    0.889195     -2.7152  -0.000282709
1210  -0.0676942    0.888978    -1.73278  -0.000842422
1220  -0.0487575    0.890947    -2.10263  -0.00104061
1230   -0.046882    0.891142    -1.61097  0.000569802
1240  -0.0601536    0.889762    -3.08505  0.000240577
1250  -0.0516935    0.890641    -2.77817  -0.000648906
1260  -0.0471754    0.891111    -2.47141  0.000373907
1270  -0.0591716    0.889864    -3.20848  0.000936286
1280  -0.0659012    0.889164    -3.26821  -0.00104872
1290  -0.0381972    0.892045    -2.77907  -0.000949671
1300  -0.0469077    0.891139    -3.57725  0.000639648
1310  -0.0509902    0.890714    -3.76095  0.00010957
1320  -0.0490991    0.890911    -3.76089  0.000209997
1330  -0.0551901    0.890278    -3.14761  -0.000756125
1340  -0.0339766    0.892484    -3.70008  -0.000589521
1350  -0.0433997    0.891504    -3.63891  0.000776388
1360  -0.0495044    0.890869    -3.88509  0.00054438
1370  -0.0542873    0.890372    -5.42059  0.000177581
1380   -0.053056      0.8905     -2.9016  -0.000659367
1390     -0.0411    0.891743    -2.71778  0.000178441
1400  -0.0566249    0.890129    -2.65505  0.000378722
1410  -0.0486744    0.890955    -3.14749  -0.000459631
1420  -0.0474322    0.891084    -3.08643  0.000212204
1430  -0.0529185    0.890514    -3.76197  7.74123e-05
1440  -0.0489805    0.890923    -4.06975  0.000145653
1450  -0.0558315    0.890211    -4.99124  0.000990082
1460  -0.0687821    0.888864    -3.94603  4.50546e-05
1470  -0.0567326    0.890117    -3.70086  -2.12949e-05
1480  -0.0683562    0.888909    -3.82368  0.000756985
1490  -0.0718723    0.888543    -3.02472  -0.000836003
1500  -0.0516362    0.890647    -3.94795  -8.89629e-05
1510  -0.0700931    0.888728     -3.7008  0.000520993
1520   -0.062056    0.889564    -4.37699  -0.000123384
1530  -0.0676254    0.888985    -3.20914  -0.000295033
1540  -0.0561554    0.890177    -3.88564  -0.00049967
1550   -0.057632    0.890024    -3.14857  -0.000501475
1560  -0.0461259     0.89122     -2.8418  1.14929e-05
1570  -0.0578618        0.89    -2.84144  0.00114075
1580  -0.0689409    0.888848    -3.08661  -0.000365882
1590  -0.0505442    0.890761    -3.21046  -0.0003993
1600  -0.0609549    0.889678    -3.02586  0.00100785
1610  -0.0707012    0.888665    -3.88605  -0.000263535
1620  -0.0556842    0.890226    -3.63975  -0.00012476
1630   -0.068206    0.888924    -3.33298  0.000390931
1640  -0.0635028    0.889413     -3.3947  -0.00140397
1650  -0.0401266    0.891844    -3.70338  -0.000195322
1660  -0.0595964     0.88982    -3.14875  0.000390473
1670  -0.0479361    0.891032    -3.45695  0.000566621
1680  -0.0709288    0.888641    -3.64011  0.000774268
1690  -0.0634214    0.889422    -2.65691  -0.000160672
1700  -0.0677154    0.888975    -3.94753  0.000151557
1710  -0.0664526    0.889107    -3.57875  -0.000788569
1720   -0.051944    0.890615    -2.84228  -0.000615172
1730  -0.0541491    0.890386    -2.84228  0.000849187
1740  -0.0689277    0.888849    -2.78015  0.000885385
1750  -0.0718568    0.888545     -2.2272  8.31731e-05
1760  -0.0705912    0.888676    -4.62396  -0.00037213
1770  -0.0644142    0.889319    -2.41192  -0.000653663
1780  -0.0575179    0.890036    -2.65859  0.000258519
1790  -0.0695846    0.888781    -3.64035  0.000363618
1800  -0.0647903    0.889279    -3.27307  -5.73214e-05
1810  -0.0684382      0.8889    -2.41174  0.000294803
1820  -0.0706863    0.888666    -2.96457  0.000154509
1830  -0.0715284    0.888579    -2.47405  -0.000304777
1840  -0.0645908      0.8893     -3.2116  0.000367401
1850  -0.0788764    0.887815    -2.35044  0.000438049
1860  -0.0733518    0.888389    -3.88743  -0.000127397
1870  -0.0763285     0.88808     -3.8259  1.37858e-05
1880  -0.0736275    0.888361    -3.51812  -2.14096e-05
1890  -0.0759003    0.888124    -3.94855  0.000227537
1900  -0.0781782    0.887887     -3.2113  0.000584792
1910  -0.0875961    0.886908    -3.15001  0.000800034
1920  -0.0941789    0.886224    -3.82512  -5.58883e-05
1930  -0.0864784    0.887024    -4.56339  -0.000520449
1940  -0.0837699    0.887306    -3.27319  -0.000629617
1950   -0.073886    0.888334    -3.76461  -0.000235906
1960  -0.0790518    0.887797    -3.88738  0.000948209
1970  -0.0928502    0.886362    -4.50108  -0.000129288
1980   -0.076466    0.888065    -3.58031  -0.000379783
1990  -0.0852545    0.887152    -4.13375  -0.000310223
2000  -0.0702616    0.888711    -4.19522  -0.000887248
2010  -0.0675096    0.888997    -4.56471  0.000592129
2020  -0.0821042    0.887479    -4.25681  0.000809721
2030   -0.083704    0.887313    -4.25561  -0.00074598
2040  -0.0671846    0.889031    -4.19534  -0.000311255
2050  -0.0774789     0.88796    -4.68652  0.00124889
2060  -0.0921623    0.886433    -5.11598  0.000451291
2070  -0.0865047    0.887022    -4.31726  -0.00173216
2080  -0.0575191    0.890036    -5.54737  -0.000203089
2090  -0.0824429    0.887444    -4.62492  0.000998308
2100  -0.0774852    0.887959    -5.05475  0.00012519
2110  -0.0849467    0.887184    -5.85389  -9.50962e-05
2120  -0.0755833    0.888157    -4.80982  -0.000387607
2130  -0.0771946     0.88799    -3.51932  -5.90123e-05
2140  -0.0744031     0.88828    -5.23959  -0.000720385
2150  -0.0627869    0.889488    -4.74865  -5.91271e-05
2160  -0.0732205    0.888403    -4.62504  0.000492017
2170  -0.0726272    0.888465    -4.56417  -0.000280874
2180   -0.067603    0.888987    -5.60884  -0.000724599
2190  -0.0581353    0.889971    -6.28468  -2.33583e-05
2200  -0.0671359    0.889036    -5.30172  0.000790203
2210  -0.0739393    0.888328    -6.46856  0.000458599
2220  -0.0763078    0.888082    -5.54713  -0.00095096
2230  -0.0549201    0.890306    -5.67092  -0.000431314
2240  -0.0676816    0.888979    -5.05577  -0.000136855
2250   -0.052183     0.89059    -5.42485  -0.00020991
2260  -0.0634833    0.889415    -5.73191  0.000982229
2270  -0.0718276    0.888548    -5.48572  0.000648619
2280  -0.0764557    0.888066    -6.28498  0.000238829
2290  -0.0766042    0.888051    -6.34693  -0.000622051
2300  -0.0640147     0.88936     -5.6714  -0.000885442
2310  -0.0588953    0.889892    -5.91687  -0.000136883
2320  -0.0612771    0.889645    -5.05643  0.000163136
2330  -0.0621581    0.889553    -6.59222  -0.000137714
2340  -0.0585228    0.889931    -5.97834  0.000390473
2350  -0.0699675    0.888741    -5.91633  0.000805851
2360  -0.0746398    0.888255    -5.30232  -0.000439654
2370  -0.0611744    0.889655    -6.77706  -0.00051529
2380   -0.064334    0.889327     -5.7935  -0.000365968
2390  -0.0538551    0.890417    -5.11826  -0.000631824
2400  -0.0516975    0.890641    -6.40877  -0.000139864
2410  -0.0510578    0.890707    -5.85605  -0.00055894
2420  -0.0405187    0.891803    -5.30364  0.000736006
2430  -0.0657779    0.889177     -6.1624  -0.000333066
2440  -0.0338574    0.892496    -6.16378  -0.000482932
2450  -0.0561193    0.890181    -6.53069  0.00081316
2460  -0.0501206    0.890805    -6.96118  0.000280817
2470  -0.0617356    0.889597    -6.34687  -6.48877e-05
2480  -0.0488228     0.89094    -6.40841  -0.000985554
2490  -0.0420245    0.891647    -5.36457  -0.000565331
2500  -0.0375162    0.892116    -5.24253  -0.0002204
2510  -0.0376165    0.892105    -5.30298  -6.69513e-05
2520  -0.0361772    0.892255    -5.42659  0.000126078
2530  -0.0401381    0.891843    -5.61052  0.000628786
2540  -0.0487529    0.890947    -4.81048  -0.000337938
2550  -0.0333793    0.892546    -6.28696  -0.000453612
2560  -0.0396807     0.89189    -6.40853  -0.000300994
2570  -0.0273595    0.893172    -5.79494  -0.000572697
2580  -0.0282267    0.893081    -5.85629  -0.00123705
2590  -0.00261844    0.895744    -6.90163  -0.00112169
2600  -0.00579289    0.895414    -6.47222  0.000200739
2610  -0.00663322    0.895327    -7.63918  0.000670745
2620  -0.0192078    0.894019     -6.2866  0.000554297
2630  -0.0177192    0.894174    -6.59468  -0.000266573
2640  -0.0138763    0.894574    -6.53297  0.000400217
2650  -0.0257235    0.893342    -6.53243  -0.00113281
2660   0.0087799     0.89693     -5.9814  -0.000778481
2670  -0.0101539    0.894961    -6.77892  0.00122596
2680  -0.0157393     0.89438    -6.40967  -0.000388037
2690  -0.00239316    0.895768    -6.41015  -0.000308733
2700  -0.00956463    0.895022     -5.7962  0.00143042
2710  -0.0310017    0.892793    -6.10194  6.62059e-06
2720  -0.00969705    0.895008    -6.10278  -0.00173652
2730  0.00372875    0.896404    -6.96406  -0.000867673
2740  0.00765641    0.896813    -6.34957  4.75767e-06
2750   0.0036336    0.896394    -6.41099  8.40044e-05
2760  0.00597632    0.896638    -6.59504  0.000523659
2770  -0.00683958    0.895305    -6.47186  0.000603966
2780   -0.006103    0.895382    -6.53375  -0.00127431
2790   0.0186466    0.897956     -6.9643  -0.000795219
2800  0.00980137    0.897036    -6.59576  2.80868e-06
2810   0.0185904     0.89795    -7.14853  -0.000196927
2820   0.0137399    0.897445    -6.04233  0.000445473
2830    0.009681    0.897023    -6.84129  -0.000480037
2840   0.0233407    0.898444    -7.51779  -0.000399472
2850   0.0176704    0.897854     -7.4562  4.25038e-05
2860   0.0224906    0.898355    -7.64091  -0.00028033
2870    0.023277    0.898437    -7.76308  0.000326416
2880   0.0159623    0.897676    -8.31579  0.000326817
2890   0.0167407    0.897757    -7.21013  -0.000118569
2900   0.0183336    0.897923    -7.88638  0.000369378
2910  0.00935312    0.896989    -8.37714  -0.000119515
2920   0.0207239    0.898172     -7.5798  -0.000322375
2930   0.0158006     0.89766    -7.94792  8.42909e-05
2940   0.0190381    0.897996    -8.43934  -0.000160471
2950     0.01901    0.897993    -8.07098  4.36788e-05
2960   0.0181645    0.897905    -7.88627  -0.000612908
2970   0.0312682    0.899268    -8.01005  -0.000449055
2980   0.0271457    0.898839    -6.90403  0.000165716
2990   0.0279539    0.898923    -7.08838  4.28476e-05
3000   0.0262887     0.89875    -7.88698  0.00024929
3010   0.0229681    0.898405    -7.88662  -8.08517e-05
3020   0.0279057    0.898918    -7.27238  -0.000742941
3030   0.0378269     0.89995    -7.21169  0.000333151
3040   0.0212427    0.898225    -6.90373  -0.000331862
3050   0.0444641     0.90064    -7.02715  -0.00074575
3060   0.0361577    0.899776    -7.58016  0.000706858
3070    0.030327     0.89917    -7.08868  0.00104267
3080   0.0153042    0.897608    -7.51773  0.000293456
3090   0.0244579     0.89856    -8.31681  -0.00125107
3100   0.0403255     0.90021    -7.94894  -0.000123413
3110   0.0269261    0.898816    -8.13275  -0.000168009
3120   0.0436857    0.900559    -8.07176  -0.00117437
3130   0.0504135    0.901259    -7.94942  0.00100877
3140   0.0235103    0.898461    -6.90439  0.000672178
3150   0.0369699    0.899861    -7.76512  -0.000883694
3160   0.0411842    0.900299    -7.21235  -0.000168725
3170   0.0403445    0.900212    -7.70341  0.000211172
3180   0.0369608     0.89986    -8.31873  0.00110131
3190   0.0183182    0.897921    -8.50237  0.000297268
3200   0.0310154    0.899242    -6.41345  3.06675e-06
3210   0.0182568    0.897915    -6.35203  0.00102238
3220   0.0105678    0.897115    -7.02757  -0.00021014
3230   0.0224596    0.898352    -6.53579  -0.00187366
3240    0.048041    0.901012      -6.476  -0.000467799
3250   0.0318156    0.899325    -7.15076  0.000512252
3260   0.0377959    0.899947    -7.94996  4.39654e-05
3270   0.0309363    0.899233    -7.33559  -0.000171763
3280   0.0412312    0.900304    -8.01221  0.000388065
3290    0.023175    0.898426    -7.70431  0.000430254
3300   0.0326261    0.899409    -7.82701  -0.00124823
3310   0.0481396    0.901022    -7.33649  0.000907941
3320   0.0144673    0.897521    -7.76512  0.00116635
3330   0.0248127    0.898597    -7.64253  0.000263621
3340  0.00919491    0.896973    -6.47492  0.000436014
3350   0.0160924     0.89769    -8.25744  -0.000777764
3360   0.0247502     0.89859     -6.6603  -0.000605858
3370   0.0282095     0.89895    -7.58196  0.000176521
3380   0.0212198    0.898223    -6.10716  0.000350692
3390   0.0211957    0.898221    -6.35299  0.000221117
3400   0.0167974    0.897763    -6.53747  -0.000347482
3410   0.0281453    0.898943    -6.41501  -0.000128256
3420   0.0193626     0.89803    -6.90564  0.00079198
3430   0.0123057    0.897296    -6.72129  -8.49215e-05
3440    0.021061    0.898207    -6.10698  -0.000304233
3450   0.0183904    0.897929    -6.90607  0.000179129
3460   0.0174784    0.897834    -6.04605  0.000135622
3470    0.015678    0.897647    -6.16888  0.000534177
3480  0.00679487    0.896723    -5.55433  0.000446762
3490  0.00674271    0.896718       -6.66  -0.00012817
3500  0.00935828     0.89699    -6.23029  -0.000173024
3510   0.0102032    0.897078    -5.18574  0.00120673
3520  -0.0147763     0.89448    -6.53723  0.000361182
3530  0.00297956    0.896326    -6.66066  -0.00191224
3540   0.0234685    0.898457    -5.55493  0.000408128
3550  -0.00518299    0.895478     -7.1519  0.000674328
3560  0.00998193    0.897055    -6.59984  5.17325e-05
3570  -0.00621764     0.89537    -7.15183  0.000948238
3580  -0.00898282    0.895083    -6.29146  -0.000533146
3590  0.00444527    0.896479    -6.59906  -0.0011196
3600   0.0134092    0.897411     -6.4772  5.04427e-05
3610  0.00343641    0.896374    -5.92359  0.000817975
3620  -0.00295033     0.89571    -6.47624  -0.000628557
3630   0.0160075    0.897681    -6.66192  0.000414777
3640  -0.0112459    0.894847    -6.23029  0.00145751
3650  -0.0131426     0.89465    -5.80052  -0.000674614
3660  0.00224642     0.89625    -6.16978  -0.00167828
3670    0.020423     0.89814    -7.27664  0.000371041
3680  -0.00517439    0.895479    -7.82839  0.000871742
3690  0.00298816    0.896327    -6.72255  5.26496e-05
3700  -0.00622739    0.895369    -7.39815  -0.000728239
3710   0.0175529    0.897842    -6.72327  -0.00104958
3720   0.0147642    0.897552    -6.90769  0.00032547
3730   0.0110435    0.897165    -7.27628  0.000464704
3740  0.00547017    0.896585     -6.6618  0.00111223
3750  -0.0112012    0.894852     -7.5831  0.000236479
3760  0.000740591    0.896094    -5.98566  -0.000408672
3770  -0.00302771    0.895702    -7.03051  -0.000457739
3780  0.00989538    0.897046    -6.53951  -0.000225617
3790  0.00148462    0.896171    -7.15352  5.12739e-05
3800   0.0088699    0.896939    -6.72321  -0.000739789
3810   0.0162804    0.897709    -7.58436  9.81341e-05
3820  0.00690722    0.896735    -6.96922  0.00168705
3830  -0.0174606    0.894201    -6.35425  0.000333008
3840  0.000247055    0.896042    -6.72351  -0.00102296
3850  0.00299848    0.896328    -7.21511  -0.000369665
3860  0.00764036    0.896811    -6.53945  0.000146972
3870  5.90409e-05    0.896023    -6.72351  0.000617952
3880  -0.00471869    0.895526    -6.53939   6.334e-06
3890  -6.76391e-05     0.89601    -7.52193  -0.000986099
3900   0.0150033    0.897577    -7.58466  -8.84181e-05
3910  0.00170072    0.896193    -6.90817  -0.000755495
3920   0.0301132    0.899148     -7.4622  -4.13573e-05
3930  0.00252787    0.896279    -7.58412  0.00166782
3940  -0.00324324    0.895679    -8.13707  -0.00123401
3950   0.0272081    0.898846    -7.40115  -0.00113946
3960    0.019546    0.898049    -7.03153  0.000384683
3970   0.0195145    0.898046    -7.64655  0.000530308
3980  0.00893983    0.896946    -7.15466  0.000291192
3990   0.0136906     0.89744    -7.21691  0.000918689
4000  -0.00943394    0.895036     -7.5846  -0.000525608
4010   0.0242028    0.898533     -7.4634  -0.00124645
4020   0.0154951    0.897628    -7.15586  0.00106563
4030  0.00289014    0.896317    -6.97096  0.00102043
4040  -0.00491358    0.895506    -6.47846  0.000248459
4050  -0.00207904      0.8958    -7.46256  0.000153077
4060  -0.00797511    0.895187    -7.95464  0.000250064
4070  -0.00708033     0.89528    -7.27862  5.65761e-05
4080  -0.00910664     0.89507    -8.32281  0.000251841
4090  -0.0121172    0.894757    -7.46244  -0.000627496
4100  0.00344329    0.896375    -7.58586  -0.000677165
4110  0.00142615    0.896165    -7.34027  0.000447479
4120  -0.00550628    0.895444    -7.58592  0.000104669
4130  -0.00066722    0.895947    -7.58622  0.000253761
4140  -0.0105815    0.894916    -8.26206  0.000450517
4150  -0.00967756     0.89501    -7.27922  -0.000238514
4160  -0.00581123    0.895412     -7.5861  -0.000882433
4170   0.0079711    0.896845    -8.26314   0.0010981
4180  -0.0277733    0.893129    -7.64728  0.000799804
4190  -0.00802498    0.895182    -7.40223  -0.000734573
4200  -0.0130819    0.894656    -7.77082  0.000506405
4210  -0.0181531    0.894129    -7.64782  -0.000140867
4220  -0.0102645    0.894949    -7.15664  -0.000790146
4230  -0.00235017    0.895772     -6.6657  -9.16854e-05
4240  -0.00843082     0.89514    -8.07866  0.000157576
4250  -0.0055017    0.895445     -7.6483  0.000259551
4260  -0.0136218      0.8946    -8.50879  0.000662262
4270  -0.0187469    0.894067    -7.83349  -4.1386e-05
4280  -0.0127941    0.894686    -7.95548  -0.000141526
4290  -0.0159164    0.894362    -8.69273  5.96715e-05
4300  -0.0139875    0.894562    -8.50915  0.000212461
4310  -0.0201656     0.89392    -8.38578  0.000669628
4320  -0.0273801     0.89317    -8.44696  0.000315668
4330   -0.026479    0.893263    -8.01701  -0.000498151
4340  -0.0174171    0.894206    -7.64902  -0.00192892
4350   0.0120994    0.897275    -8.01803  0.000265799
4360  -0.0227331    0.893653    -7.89424  0.00179834
4370  -0.0238674    0.893535    -7.64902  -0.000245736
4380  -0.0178183    0.894164    -7.40301  -0.000657447
4390  -0.0107185    0.894902    -7.71043  0.00037064
4400  -0.0252311    0.893393    -7.89448  0.000473388
4410  -0.0201863    0.893918    -6.66594  -0.000608982
4420  -0.0130515    0.894659    -7.21961  -0.000455618
4430  -0.0110739    0.894865    -5.99082  -4.26471e-05
4440  -0.0121985    0.894748    -6.60524  0.000112923
4450  -0.0133324     0.89463    -7.40415  0.000425926
4460  -0.0207171    0.893862    -6.42053  0.000739875
4470  -0.0281299    0.893092    -7.40373  -0.00045966
4480  -0.0115239    0.894818    -7.34309  -0.00113995
4490  -0.00533088    0.895462    -6.72879  0.000481241
4500  -0.0211487    0.893817    -6.42137  0.00111163
4510  -0.0275635     0.89315    -6.91243  -0.0010421
4520  -0.000306669    0.895985    -6.48302  -0.000779083
4530  -0.0119819    0.894771    -6.66714  0.000429852
4540  -0.00890372    0.895091    -5.80748  -0.000414261
4550  -0.00369665    0.895632    -6.85185  -0.000733684
4560  0.00576996    0.896617    -6.60566  6.09326e-05
4570  -0.0049153    0.895505    -5.86895  0.000857727
4580  -0.0113846    0.894833    -6.91327  0.000434725
4590  -0.0136098    0.894601    -6.29842  -0.000364735
4600  -0.00408988    0.895591    -6.85227  0.000544982
4610  -0.0245094    0.893468    -6.17596  0.000490613
4620  -0.0139021    0.894571    -5.86889  0.000978933
4630  -0.0440881    0.891432    -5.99058  0.000278954
4640  -0.0194812    0.893991    -5.74619  -0.0017103
4650  -0.00988219    0.894989      -5.623  -4.32203e-05
4660  -0.0186168    0.894081    -5.74631  -0.00031564
4670  -0.0035694    0.895645    -6.05367  -0.00053154
4680   -0.007986    0.895186    -6.11496  0.00120335
4690  -0.0276363    0.893143     -5.3773  -0.00026342
4700  -0.0027176    0.895734    -5.86979  -0.00107839
4710  -0.00606861    0.895386    -5.43919  0.000718379
4720  -0.0170852     0.89424    -5.25507  0.000720242
4730  -0.0204735    0.893888    -5.86889  -0.000318678
4740  -0.0107116    0.894903    -6.42311  -0.000483305
4750  -0.0108074    0.894893    -6.66858  0.000174687
4760  -0.0142054    0.894539    -5.93139  0.00100241
4770  -0.0308555    0.892808    -6.17656  -0.000266229
4780  -0.00888079    0.895093    -5.43997  -0.00120487
4790  -0.00675818    0.895314    -6.23869  0.000674958
4800    -0.02238    0.893689    -6.23887  0.00123166
4810  -0.0313914    0.892752     -5.6855  -0.000433808
4820  -0.0137038    0.894592     -5.3175  -0.0013817
4830  -0.00375741    0.895626    -5.68646  -0.00026941
4840  -0.0083156    0.895152    -5.44063  -0.000103694
4850  -0.00168353    0.895842    -5.25639  0.00107555
4860  -0.0298266    0.892915    -5.87009  0.00135763
4870  -0.0288361    0.893018    -5.68586  -0.000212003
4880  -0.0255865    0.893356    -5.93205  -0.000156143
4890  -0.0257132    0.893343    -4.88767  0.000804533
4900  -0.0416772    0.891683    -6.30022  0.000352698
4910  -0.0327672    0.892609    -6.30088  0.000186208
4920  -0.0454013    0.891296    -6.17716  0.000696941
4930   -0.046706     0.89116    -6.30088  -0.00106675
4940  -0.0240664    0.893514    -6.11688  0.000131237
4950  -0.0493307    0.890887    -5.74745  0.00150093
4960  -0.0540849    0.890393    -5.74775  -0.000900403
4970  -0.0313227     0.89276    -5.50282  -0.0010736
4980   -0.032613    0.892625    -5.68718  0.000647616
4990   -0.044275    0.891413    -6.17836  0.00236883
