Time   Number   
ps   
0          17          19
10          16          20
20          17          17
30          17          19
40          17          21
50          15          21
60          17          17
70          17          19
80          17          19
90          16          20
100          17          19
110          18          18
120          15          17
130          18          18
140          17          21
150          17          21
160          16          20
170          18          20
180          17          23
190          15          19
200          17          19
210          17          19
220          17          17
230          16          20
240          15          17
250          14          20
260          18          22
270          17          19
280          18          20
290          17          17
300          17          19
310          13          21
320          16          18
330          16          20
340          18          20
350          17          23
360          16          20
370          16          22
380          15          17
390          16          16
400          17          17
410          17          17
420          17          17
430          17          21
440          16          18
450          17          17
460          16          22
470          18          20
480          16          22
490          17          19
500          16          20
510          16          20
520          17          19
530          18          20
540          18          18
550          17          17
560          17          19
570          18          18
580          18          18
590          16          20
600          17          19
610          16          20
620          16          20
630          17          19
640          18          20
650          17          21
660          18          20
670          16          22
680          17          17
690          17          21
700          15          21
710          15          17
720          16          22
730          17          21
740          17          21
750          16          18
760          16          22
770          17          23
780          17          21
790          17          21
800          17          17
810          16          20
820          18          18
830          17          19
840          18          20
850          16          22
860          18          20
870          18          20
880          18          18
890          17          21
900          19          19
910          18          20
920          16          18
930          18          20
940          17          19
950          17          17
960          18          18
970          18          20
980          16          18
990          18          18
1000          18          18
1010          19          21
1020          16          22
1030          16          20
1040          17          17
1050          15          21
1060          17          19
1070          16          22
1080          18          22
1090          17          21
1100          19          21
1110          17          21
1120          17          17
1130          18          22
1140          17          21
1150          19          19
1160          19          19
1170          19          19
1180          18          20
1190          16          18
1200          18          22
1210          16          22
1220          16          16
1230          16          20
1240          14          26
1250          18          18
1260          17          17
1270          21          21
1280          17          23
1290          18          20
1300          19          19
1310          15          19
1320          16          20
1330          16          20
1340          15          21
1350          16          20
1360          18          20
1370          15          21
1380          17          19
1390          15          21
1400          17          21
1410          17          19
1420          17          17
1430          18          18
1440          18          20
1450          16          16
1460          17          21
1470          17          19
1480          18          18
1490          14          16
1500          16          20
1510          17          19
1520          14          24
1530          16          22
1540          18          20
1550          18          20
1560          16          16
1570          15          21
1580          17          19
1590          17          21
1600          17          19
1610          16          18
1620          18          20
1630          15          19
1640          18          20
1650          18          20
1660          17          17
1670          15          17
1680          17          17
1690          16          20
1700          16          18
1710          16          20
1720          17          21
1730          16          18
1740          17          21
1750          15          17
1760          16          18
1770          15          17
1780          17          17
1790          17          21
1800          16          20
1810          17          17
1820          18          18
1830          17          17
1840          17          19
1850          17          21
1860          18          18
1870          17          17
1880          17          19
1890          15          23
1900          17          21
1910          16          18
1920          18          18
1930          17          19
1940          16          20
1950          16          20
1960          17          19
1970          17          21
1980          16          22
1990          15          21
2000          18          18
2010          17          19
2020          17          21
2030          17          19
2040          15          19
2050          16          20
2060          17          17
2070          15          17
2080          18          18
2090          17          21
2100          17          19
2110          14          18
2120          16          18
2130          15          21
2140          19          19
2150          18          20
2160          18          22
2170          17          19
2180          17          19
2190          17          19
2200          14          22
2210          17          19
2220          16          22
2230          16          22
2240          18          18
2250          18          20
2260          15          21
2270          18          18
2280          17          17
2290          16          22
2300          15          19
2310          18          20
2320          18          22
2330          17          19
2340          17          17
2350          16          20
2360          17          17
2370          17          21
2380          15          23
2390          16          20
2400          18          20
2410          17          17
2420          17          21
2430          18          18
2440          16          22
2450          14          20
2460          15          21
2470          16          20
2480          17          21
2490          17          17
2500          17          17
2510          16          20
2520          14          22
2530          18          18
2540          17          21
2550          15          19
2560          17          19
2570          17          19
2580          15          21
2590          18          18
2600          17          21
2610          16          18
2620          16          20
2630          16          20
2640          15          21
2650          16          18
2660          15          21
2670          17          19
2680          15          23
2690          15          23
2700          17          19
2710          17          21
2720          18          18
2730          18          18
2740          18          18
2750          16          20
2760          17          19
2770          18          18
2780          15          19
2790          16          20
2800          19          19
2810          16          20
2820          17          19
2830          18          18
2840          16          20
2850          18          18
2860          17          21
2870          15          17
2880          16          22
2890          17          21
2900          16          16
2910          13          21
2920          17          19
2930          16          20
2940          18          20
2950          18          20
2960          17          19
2970          16          20
2980          16          20
2990          19          21
3000          17          19
3010          18          20
3020          13          21
3030          17          17
3040          17          21
3050          17          21
3060          17          21
3070          18          20
3080          16          20
3090          15          21
3100          17          17
3110          17          19
3120          15          21
3130          17          19
3140          16          20
3150          15          21
3160          17          19
3170          18          18
3180          18          18
3190          17          21
3200          17          19
3210          16          20
3220          16          18
3230          16          20
3240          16          22
3250          17          21
3260          17          19
3270          18          18
3280          18          20
3290          17          19
3300          14          22
3310          16          20
3320          18          18
3330          16          20
3340          16          20
3350          17          19
3360          14          24
3370          18          20
3380          17          17
3390          16          20
3400          18          18
3410          18          20
3420          18          18
3430          17          21
3440          16          18
3450          18          20
3460          16          20
3470          18          20
3480          18          20
3490          17          17
3500          18          18
3510          17          19
3520          17          21
3530          16          20
3540          17          17
3550          16          22
3560          17          21
3570          16          20
3580          17          19
3590          17          19
3600          18          18
3610          18          20
3620          17          19
3630          18          20
3640          16          22
3650          17          17
3660          18          18
3670          18          20
3680          16          20
3690          17          19
3700          19          19
3710          17          21
3720          15          19
3730          15          19
3740          18          22
3750          17          19
3760          18          22
3770          18          20
3780          17          19
3790          18          20
3800          18          20
3810          17          21
3820          17          21
3830          17          19
3840          16          22
3850          18          20
3860          17          21
3870          16          20
3880          16          18
3890          18          18
3900          17          17
3910          17          17
3920          19          19
3930          16          20
3940          15          19
3950          15          23
3960          17          19
3970          18          22
3980          18          20
3990          18          20
4000          18          18
4010          17          23
4020          18          18
4030          16          20
4040          18          22
4050          16          18
4060          18          22
4070          16          20
4080          15          21
4090          17          21
4100          18          20
4110          19          19
4120          18          22
4130          18          20
4140          17          23
4150          18          22
4160          19          19
4170          17          23
4180          17          21
4190          19          21
4200          18          22
4210          18          22
4220          19          21
4230          19          21
4240          18          20
4250          19          23
4260          18          20
4270          19          21
4280          17          23
4290          19          21
4300          18          22
4310          16          22
4320          18          22
4330          17          23
4340          17          19
4350          17          21
4360          17          21
4370          18          20
4380          16          20
4390          15          21
4400          16          22
4410          18          18
4420          16          22
4430          17          19
4440          15          17
4450          16          22
4460          15          21
4470          16          18
4480          16          20
4490          15          19
4500          15          21
4510          17          19
4520          18          20
4530          15          25
4540          19          19
4550          17          19
4560          18          22
4570          16          22
4580          16          20
4590          17          21
4600          17          21
4610          18          18
4620          15          19
4630          16          20
4640          16          18
4650          16          20
4660          18          20
4670          18          18
4680          17          19
4690          14          22
4700          16          20
4710          18          18
4720          17          19
4730          16          22
4740          17          19
4750          17          21
4760          17          19
4770          16          20
4780          16          22
4790          16          20
4800          15          23
4810          17          21
4820          18          18
4830          17          19
4840          17          21
4850          19          19
4860          18          22
4870          18          18
4880          17          21
4890          18          22
4900          19          21
4910          18          18
4920          17          19
4930          18          22
4940          15          23
4950          18          22
4960          18          22
4970          16          22
4980          19          21
4990          19          19
5000          17          19
5010          19          19
5020          18          20
5030          17          23
5040          17          21
5050          17          17
5060          18          20
5070          19          21
5080          19          21
5090          16          20
5100          19          19
5110          17          19
5120          18          20
5130          16          20
5140          18          20
5150          17          19
5160          16          18
5170          17          19
5180          17          19
5190          18          20
5200          16          20
5210          16          20
5220          18          18
5230          15          19
5240          17          21
5250          17          19
5260          17          19
5270          17          19
5280          18          18
5290          15          21
5300          17          19
5310          17          17
5320          17          19
5330          16          20
5340          16          18
5350          19          19
5360          17          19
5370          16          18
5380          17          17
5390          18          22
5400          18          20
5410          18          20
5420          18          18
5430          18          20
5440          16          18
5450          17          21
5460          17          17
5470          15          21
5480          15          19
5490          18          18
5500          17          21
5510          18          18
5520          19          21
5530          16          24
5540          16          20
5550          18          22
5560          18          20
5570          17          21
5580          19          21
5590          18          22
5600          18          22
5610          16          20
5620          16          20
5630          18          18
5640          19          19
5650          16          20
5660          17          21
5670          19          21
5680          16          20
5690          17          17
5700          18          20
5710          18          22
5720          18          18
5730          17          21
5740          15          23
5750          15          23
5760          15          21
5770          18          18
5780          18          20
5790          16          18
5800          18          22
5810          17          21
5820          17          21
5830          19          21
5840          17          19
5850          16          22
5860          18          20
5870          16          22
5880          14          24
5890          17          17
5900          18          18
5910          16          18
5920          15          19
5930          17          23
5940          16          20
5950          17          21
5960          15          21
5970          17          17
5980          16          20
5990          14          22
6000          18          18
6010          18          20
6020          18          20
6030          16          20
6040          16          20
6050          14          20
6060          13          21
6070          17          19
6080          15          19
6090          15          21
6100          16          20
6110          17          19
6120          17          21
6130          17          19
6140          18          18
6150          17          17
6160          16          20
6170          17          19
6180          18          18
6190          16          22
6200          15          19
6210          17          21
6220          16          20
6230          18          20
6240          16          20
6250          18          18
6260          17          19
6270          17          19
6280          18          20
6290          14          24
6300          18          20
6310          16          20
6320          18          20
6330          14          22
6340          14          20
6350          16          20
6360          19          19
6370          16          24
6380          17          23
6390          19          21
6400          15          23
6410          18          22
6420          16          20
6430          16          22
6440          15          21
6450          16          22
6460          17          19
6470          18          18
6480          16          24
6490          16          16
6500          16          20
6510          16          20
6520          16          16
6530          18          20
6540          18          18
6550          17          21
6560          16          18
6570          17          19
6580          17          21
6590          14          22
6600          16          18
6610          17          23
6620          17          19
6630          17          21
6640          17          17
6650          16          18
6660          18          22
6670          17          19
6680          15          19
6690          16          24
6700          14          20
6710          17          21
6720          15          23
6730          17          21
6740          17          23
6750          15          23
6760          17          19
6770          15          19
6780          17          19
6790          17          17
6800          18          20
6810          19          19
6820          17          21
6830          16          20
6840          16          20
6850          16          20
6860          17          21
6870          18          18
6880          15          21
6890          13          23
6900          16          24
6910          15          23
6920          15          19
6930          17          19
6940          17          21
6950          16          20
6960          17          19
6970          16          22
6980          17          19
6990          17          19
7000          15          21
7010          16          22
7020          19          21
7030          16          20
7040          17          23
7050          17          19
7060          17          21
7070          18          22
7080          15          19
7090          18          22
7100          16          24
7110          17          25
7120          16          22
7130          15          25
7140          16          20
7150          15          21
7160          16          22
7170          16          24
7180          16          20
7190          16          18
7200          14          18
7210          14          22
7220          19          19
7230          15          19
7240          16          18
7250          14          20
7260          14          16
7270          17          19
7280          12          24
7290          15          21
7300          14          18
7310          16          22
7320          14          18
7330          16          18
7340          15          19
7350          14          20
7360          14          20
7370          16          20
7380          13          21
7390          16          22
7400          16          22
7410          15          21
7420          17          23
7430          13          19
7440          15          19
7450          16          22
7460          14          22
7470          15          21
7480          17          21
7490          16          22
7500          17          17
7510          16          20
7520          18          20
7530          16          18
7540          17          21
7550          15          23
7560          16          20
7570          17          19
7580          16          20
7590          17          21
7600          16          20
7610          17          17
7620          17          19
7630          16          20
7640          14          18
7650          17          19
7660          15          21
7670          17          21
7680          15          17
7690          14          20
7700          17          17
7710          17          19
7720          15          19
7730          17          21
7740          16          20
7750          17          19
7760          16          20
7770          15          17
7780          16          20
7790          17          21
7800          16          20
7810          16          20
7820          15          23
7830          16          20
7840          17          17
7850          15          19
7860          15          19
7870          16          20
7880          15          21
7890          15          19
7900          15          21
7910          16          20
7920          16          20
7930          16          20
7940          13          19
7950          18          20
7960          14          20
7970          18          20
7980          16          22
7990          17          23
8000          15          25
8010          19          23
8020          15          17
8030          15          21
8040          19          23
8050          18          24
8060          17          21
8070          16          22
8080          17          23
8090          17          19
8100          19          21
8110          18          24
8120          16          22
8130          16          20
8140          17          25
8150          17          23
8160          18          22
8170          18          22
8180          17          23
8190          17          21
8200          19          21
8210          18          20
8220          17          21
8230          17          21
8240          16          20
8250          16          22
8260          18          20
8270          16          20
8280          17          21
8290          16          16
8300          17          19
8310          18          20
8320          17          19
8330          17          19
8340          17          19
8350          17          21
8360          15          23
8370          17          19
8380          16          22
8390          18          20
8400          16          20
8410          17          19
8420          18          18
8430          18          20
8440          19          19
8450          16          22
8460          16          18
8470          17          21
8480          14          20
8490          16          22
8500          17          21
8510          17          19
8520          15          21
8530          17          17
8540          17          17
8550          16          22
8560          17          19
8570          16          18
8580          17          19
8590          17          19
8600          17          21
8610          17          17
8620          18          20
8630          14          24
8640          16          18
8650          15          17
8660          17          19
8670          17          19
8680          17          19
8690          15          23
8700          17          21
8710          18          18
8720          14          20
8730          17          21
8740          16          18
8750          16          20
8760          17          19
8770          17          19
8780          15          17
8790          17          19
8800          16          18
8810          14          24
8820          17          21
8830          17          19
8840          19          21
8850          17          21
8860          18          22
8870          18          20
8880          18          20
8890          19          21
8900          17          23
8910          16          20
8920          15          21
8930          17          21
8940          19          19
8950          13          21
8960          14          18
8970          14          20
8980          18          20
8990          18          22
9000          17          21
9010          18          20
9020          16          20
9030          14          20
9040          20          20
9050          16          22
9060          16          22
9070          17          21
9080          18          22
9090          15          21
9100          16          20
9110          17          23
9120          17          19
9130          17          19
9140          14          24
9150          17          21
9160          13          25
9170          18          22
9180          15          17
9190          16          20
9200          18          20
9210          17          21
9220          18          20
9230          15          21
9240          17          21
9250          15          23
9260          17          21
9270          16          24
9280          17          19
9290          17          21
9300          16          20
9310          16          18
9320          17          21
9330          16          18
9340          16          20
9350          16          20
9360          17          19
9370          16          16
9380          17          19
9390          17          23
9400          16          22
9410          17          19
9420          16          20
9430          18          20
9440          16          22
9450          14          20
9460          14          24
9470          17          23
9480          17          23
9490          18          20
9500          18          20
9510          18          20
9520          16          20
9530          18          20
9540          17          21
9550          17          19
9560          16          20
9570          17          19
9580          15          23
9590          14          20
9600          18          20
9610          16          20
9620          16          22
9630          17          19
9640          15          21
9650          17          19
9660          18          20
9670          16          16
9680          17          19
9690          16          22
9700          18          20
9710          17          21
9720          16          22
9730          17          21
9740          18          20
9750          16          22
9760          17          21
9770          15          23
9780          15          23
9790          17          21
9800          15          25
9810          17          19
9820          17          19
9830          15          21
9840          16          16
9850          18          18
9860          17          19
9870          16          20
9880          16          18
9890          16          20
9900          18          18
9910          16          20
9920          17          19
9930          17          17
9940          17          23
9950          17          19
9960          17          21
9970          17          19
9980          17          19
9990          15          17
10000          15          23
