Time   C(t)   
ps   
0           1           1  1.96708e-09   0.0485155
10    0.521002    0.856534   -0.229272   0.0255986
20    0.488027    0.846657  0.00411146  0.00268175
30    0.467367    0.840469     0.85447  0.00120825
40    0.463862     0.83942     -1.5433  0.00141413
50    0.439085    0.831998   -0.227687  0.00182135
60    0.427435    0.828509    0.313807  0.000595352
70    0.427178    0.828432    -2.62554  0.000889164
80    0.409652    0.823183   -0.382195  0.00155097
90    0.396158    0.819141    -3.85934  0.000829163
100    0.393069    0.818216    -4.01415  0.000678527
110    0.382588    0.815077    0.777027  0.000947204
120    0.374124    0.812542     1.78061  0.00117898
130    0.359008    0.808014    0.623124  0.000887203
140     0.35638    0.807227    0.159223  0.000122488
150    0.356559    0.807281     1.08446  0.000225244
160    0.351876    0.805878  0.00199925  -1.79604e-05
170    0.356918    0.807388     1.93323  0.00107268
180    0.330422    0.799452    0.544851  0.00108603
190    0.335197    0.800883   -0.229498  -0.000195265
200    0.334327    0.800622    -1.54225  8.70943e-05
210    0.333455    0.800361   -0.538665  0.000628141
220    0.321764    0.796859     2.01196  0.000332339
230    0.326808     0.79837     2.08699  -2.74539e-05
240    0.322314    0.797024     1.39204  0.000695433
250      0.3129    0.794204     1.62459  0.000101791
260    0.320278    0.796414    0.772878  -0.000194886
270    0.316798    0.795372     1.62286  0.00075004
280    0.305277    0.791921     1.00641  0.000958706
290    0.297623    0.789629     3.55613  0.000545444
300    0.294368    0.788654     2.70539  0.000442816
310    0.288767    0.786976    0.619351  0.000612696
320    0.282114    0.784984      2.0103  0.000548775
330    0.277792    0.783689     5.25488  -4.9682e-05
340    0.283108    0.785281     0.77235  1.59606e-05
350    0.277472    0.783593     1.15798  0.000551105
360    0.272086     0.78198     1.15934  0.000316855
370    0.271135    0.781695     2.08548  0.000121343
380    0.269659    0.781253     1.08039  0.000239532
390    0.266345     0.78026    0.695964  0.000672846
400    0.256202    0.777223    0.541381  0.000266777
410    0.261009    0.778662   -0.386269  -0.000796725
420    0.272136    0.781995    0.615956  0.000399542
430    0.253018    0.776269      0.5404  0.00085986
440    0.254939    0.776844     2.00781  3.19004e-05
450     0.25238    0.776078    0.926557  0.000282598
460    0.249287    0.775151     2.47118   0.0005739
470    0.240902     0.77264     4.17205  0.000416069
480    0.240966    0.772659     4.55722  0.00012603
490    0.238382    0.771885     4.78887  0.000245482
500    0.236056    0.771189     5.87111  0.000285821
510    0.232665    0.770173     5.09691  -5.90086e-06
520    0.236174    0.771224      4.4785  -5.52237e-06
530    0.232776    0.770206     3.47492  0.000486657
540    0.226441    0.768309     3.32063  0.000474199
550    0.223292    0.767365     4.40272  0.000608806
560    0.214265    0.764662     6.56515  0.000529632
570    0.212699    0.764193     5.63749  -3.03581e-05
580    0.214872    0.764844      9.3456  0.000451582
590    0.203667    0.761488     5.63825  0.000679592
600     0.20128    0.760773     5.56073  -4.27067e-05
610    0.204522    0.761744     4.24587  -5.59703e-05
620      0.2024    0.761108     2.54621  0.000588796
630    0.192746    0.758217      3.6295  0.000360915
640    0.195181    0.758946     3.31943  1.2099e-05
650    0.192504    0.758144     2.54666  0.000160189
660    0.191978    0.757986      3.3195  0.000120169
670      0.1901    0.757424     6.71943  0.000282557
680    0.186327    0.756294     4.32505  0.000174816
690    0.186604    0.756377     4.94164  0.000473303
700     0.17686    0.753459     3.70566  0.000419533
710    0.178213    0.753864     7.56918  -0.000189691
720    0.180654    0.754595     5.09638  0.000380637
730    0.170601    0.751584      5.5602  0.000203989
740    0.176574    0.753373     6.02139  0.000355005
750      0.1635    0.749457     7.25964  0.000572816
760    0.165118    0.749942     7.72316  -1.18114e-05
770    0.163737    0.749528     9.11298  0.000425104
780    0.156616    0.747395     7.64489  0.000302587
790    0.157685    0.747715     6.40943  -9.33036e-05
800    0.158482    0.747954     5.48072  0.00030393
810    0.151606    0.745895      7.5688  0.000400259
820    0.150477    0.745556     6.94919  9.92738e-05
830    0.149621      0.7453     7.41271  0.000126976
840    0.147937    0.744796     5.17261  -0.00027196
850     0.15506    0.746929     4.63052  -0.000230736
860    0.152552    0.746178       7.257  0.000306249
870    0.148935    0.745095     5.17171  -1.08264e-05
880    0.152769    0.746243     5.78959  -9.33535e-05
890    0.150802    0.745654      4.7857  0.000265981
900    0.147449     0.74465      3.9361  0.000155592
910     0.14769    0.744722     7.41286  0.000267144
920    0.142106    0.743049      6.0986  0.00019799
930    0.143731    0.743536     5.63591  0.000157134
940    0.138964    0.742108     6.25477  -7.95126e-05
950    0.145321    0.744012      7.0255  4.52697e-06
960    0.138873    0.742081     4.94006  8.75726e-05
970    0.143569    0.743488     2.39065  -3.73133e-05
980    0.139619    0.742304     4.70879  0.000227682
990    0.139016    0.742124     6.25281  8.84675e-05
1000     0.13785    0.741774     6.09868  0.000312786
1010     0.13276     0.74025     3.70415  -0.000247761
1020    0.142805    0.743259     2.77605  -0.00042998
1030     0.14136    0.742826     3.00777  -9.42193e-05
1040     0.14469    0.743823     3.39295  -0.000263025
1050     0.14662    0.744401     1.61599  6.0299e-05
1060    0.143484    0.743462    0.844587  0.000144776
1070    0.143725    0.743534     1.23037  -0.000377095
1080    0.151025    0.745721     2.93048  1.82189e-05
1090     0.14336    0.743425     4.32082  0.000484428
1100    0.141337    0.742819     2.15847  -0.000307523
1110    0.149511    0.745267     3.54738  -0.000562975
1120    0.152596    0.746191     2.69717  0.000344199
1130    0.142627    0.743205     4.55134  0.000230517
1140    0.147986     0.74481     3.70075  -0.000209203
1150    0.146811    0.744458     4.93727  6.0647e-05
1160    0.146773    0.744447       6.251  -8.18215e-05
1170    0.148447    0.744949     6.48348  -0.000153304
1180    0.149839    0.745365     5.40162  7.5075e-05
1190    0.146946    0.744499     4.86028  0.000189482
1200     0.14605     0.74423     5.55522  -3.92243e-05
1210     0.14773    0.744734     2.92769  0.000118667
1220    0.143676     0.74352     3.93225  0.000247831
1230    0.142774    0.743249     4.70554  0.00053608
1240    0.132955    0.740308      6.4837  0.000479273
1250    0.133188    0.740378     5.24734  -0.000426885
1260    0.141492    0.742865     5.39996  -0.000326447
1270    0.139717    0.742334     5.01335  4.77508e-05
1280    0.140537    0.742579     3.15971  0.000293831
1290     0.13384    0.740574     4.39683  0.000105861
1300     0.13842    0.741945     6.09687  -0.000241045
1310    0.138661    0.742018     4.78246  0.000120925
1320    0.136002    0.741221     5.55522  -9.75132e-06
1330    0.138856    0.742076      3.9315  -3.85664e-05
1340    0.136773    0.741452     5.78589  -0.000199065
1350    0.142838    0.743268     5.86281  -5.32739e-05
1360    0.137838    0.741771     6.01829  6.26668e-05
1370    0.141584    0.742893     7.09902  4.88535e-06
1380    0.137741    0.741742     8.49012  0.000472567
1390    0.132133    0.740062     9.88061  3.42287e-05
1400    0.137056    0.741537     7.71682  -8.23684e-05
1410     0.13378    0.740556     8.18186  -5.36911e-05
1420     0.13813    0.741858     7.33203  -0.000185652
1430    0.137493    0.741668     8.10381  0.000196149
1440    0.134207    0.740683     6.79068  0.000358498
1450    0.130323     0.73952     10.0344  0.000329851
1460     0.12761    0.738707      9.1868  0.000109223
1470    0.128139    0.738866     7.02361  0.000287015
1480     0.12187    0.736988      7.6418  -0.000186279
1490    0.131864    0.739982     8.49034  -0.000600647
1500    0.133883    0.740586     6.94451  0.000317165
1510    0.125521    0.738082     6.63783  0.000688647
1520     0.12011    0.736461     7.71909  0.000110557
1530     0.12331     0.73742     8.41343  -0.00037998
1540    0.127709    0.738737     6.24941  0.000245164
1550    0.118407    0.735951      7.3327  2.11537e-05
1560    0.127286    0.738611     5.70905  -0.000769542
1570    0.133798    0.740561     7.25322  -0.000143343
1580    0.130153    0.739469     5.78566  0.000724328
1590    0.119311    0.736222     6.48227  0.000620697
1600    0.117739    0.735751     5.55553  -0.000127851
1610    0.121868    0.736988     7.02037  -7.61189e-06
1620    0.117891    0.735797     7.71818  -9.8348e-05
1630    0.123835    0.737577      4.7805  2.25175e-05
1640    0.117441    0.735662     6.48023  0.000670378
1650    0.110427    0.733561     6.94481  9.81592e-05
1660    0.115478    0.735074     6.48046  -0.000460348
1670    0.119634    0.736319     6.79031  -0.000158747
1680    0.118653    0.736025     6.78947  -3.81891e-05
1690    0.120398    0.736547     8.87469  2.25574e-05
1700    0.118202     0.73589     8.87552  0.000493383
1710    0.110531    0.733592      6.7903  2.26766e-05
1720    0.117748    0.735754     7.40653  0.000236836
1730    0.105794    0.732173     9.18514  0.000373473
1740    0.110279    0.733517     9.02965  -0.000189453
1750    0.109583    0.733308      9.8791  -0.00045003
1760    0.119279    0.736212     8.56597  -0.000159761
1770    0.112778    0.734265     7.71682  0.000390408
1780    0.111471    0.733874     9.64768  -8.38406e-05
1790    0.114455    0.734767     10.7273  -6.83982e-05
1800    0.112839    0.734283     9.10626  0.000638467
1810    0.101686    0.730943     6.94338  0.000500885
1820    0.102821    0.731283     8.72078  -0.000468229
1830     0.11105    0.733748     7.79366  -0.000160298
1840    0.106027    0.732243      7.6387  0.000441134
1850    0.102227    0.731105     7.48382  0.000194796
1860    0.102131    0.731076     8.56537  0.000102527
1870    0.100177    0.730491     11.7329  -0.00012998
1880    0.104731    0.731855     7.94666  -9.8826e-05
1890    0.102153    0.731083     10.0323   0.0001181
1900    0.102369    0.731147     10.0323  0.000165293
1910   0.0988475    0.730093     10.0324  0.000290219
1920   0.0965646    0.729409     9.87842  -0.000161592
1930    0.102079    0.731061     10.3417  -9.90447e-05
1940   0.0985455    0.730002     11.5791  -5.97015e-06
1950    0.102199    0.731097     11.3458  -0.000193473
1960    0.102415    0.731161     11.0373  0.000197911
1970   0.0982406    0.729911     8.17899  -6.02975e-06
1980    0.102536    0.731197     9.33708  -0.000272786
1990    0.103696    0.731545     11.4229  0.000151393
2000   0.0995076     0.73029      9.8009  0.000293313
2010     0.09783    0.729788     8.25553  2.58509e-05
2020   0.0989906    0.730136     9.80128  -0.000400577
2030    0.105842    0.732188     9.56873  2.60398e-05
2040   0.0984698     0.72998     8.64206  -6.49765e-06
2050    0.105972    0.732226     9.25896  -0.000338667
2060    0.105243    0.732008     11.3458  0.000327005
2070   0.0994314    0.730268     10.8051  0.000327493
2080   0.0986933    0.730047     9.02837  -0.000133104
2090    0.102094    0.731065       8.951  0.000137861
2100   0.0959361    0.729221     10.6515  0.000153562
2110   0.0990223    0.730145     8.64168  1.06763e-05
2120   0.0957226    0.729157     8.71965  9.03185e-05
2130   0.0972159    0.729604     9.72286  -0.000181532
2140   0.0993532    0.730244     10.2622  0.000315363
2150   0.0909086    0.727715     10.3407  -0.000118238
2160    0.101718    0.730953     8.40905  -0.00024595
2170   0.0958276    0.729188     9.10528  -3.83284e-05
2180    0.102485    0.731182     8.33093  5.91841e-05
2190    0.094644    0.728834     7.25013  0.000365204
2200   0.0951805    0.728994     7.86862  -0.000150677
2210   0.0976575    0.729736     9.48962  -0.000134776
2220    0.097876    0.729802     8.87159  -8.66767e-05
2230    0.099391    0.730256     8.71701  9.17509e-05
2240    0.096041    0.729252     8.64093  5.91643e-05
2250   0.0982077    0.729901     8.87175  1.08857e-05
2260   0.0958233    0.729187     10.9593  0.000369055
2270   0.0908266     0.72769      8.0232  0.000222965
2280    0.091364    0.727851     7.79148  -3.74328e-05
2290   0.0915753    0.727915     9.64466  -0.000708139
2300    0.105527    0.732093      7.2484  -0.000217751
2310   0.0959303    0.729219     7.01675  0.000386886
2320    0.097789    0.729776     5.78061  1.09553e-05
2330   0.0957112    0.729153     8.79408  0.000273801
2340    0.092313    0.728136     5.08589  -0.000515771
2350    0.106027    0.732243     6.62953  -0.000235761
2360   0.0970282    0.729548     5.62663  0.000108746
2370    0.103852    0.731592      6.2433  -0.000501453
2380    0.107057    0.732552     3.15277  0.000274806
2390   0.0983556    0.729945     4.31328  0.000506736
2400   0.0969226    0.729516     4.23599  -0.000155154
2410    0.101459    0.730875     4.31237  -0.000205015
2420    0.101023    0.730744     5.70317  -0.000122726
2430    0.103913     0.73161     5.47061  0.000193711
2440   0.0971486    0.729584     6.47661  0.000327054
2450   0.0973721    0.729651     3.84915  0.00012792
2460   0.0945902    0.728818     4.54493  0.000144796
2470   0.0944762    0.728783     4.85356  7.83682e-05
2480   0.0930229    0.728348     5.85768  -0.000156328
2490   0.0976028     0.72972     4.31139  0.000162766
2500   0.0897675    0.727373     3.92659  -5.79096e-06
2510   0.0977186    0.729755       3.849  -0.000745612
2520     0.10468     0.73184     5.23866  -0.000225025
2530    0.102219    0.731103     3.30758  -4.05472e-05
2540    0.105491    0.732082     3.69351  0.00026405
2550   0.0969381    0.729521     3.15398  0.000568637
2560    0.094118    0.728676     6.47676  -5.6617e-05
2570   0.0980704     0.72986     6.16564  0.000266199
2580    0.088794    0.727082     5.08514  0.000215055
2590   0.0937693    0.728572     5.70256  -0.000447194
2600   0.0977379     0.72976     4.15734  -0.000107662
2610   0.0959226    0.729217     5.31573  4.52936e-05
2620    0.096832    0.729489     5.62414  -0.000108179
2630   0.0980861    0.729865     6.62923  -0.00034805
2640    0.103793    0.731574     3.69261  0.00023396
2650   0.0934069    0.728463     3.69359  4.47564e-05
2660    0.102898    0.731306     4.38808  0.000269552
2670   0.0880159    0.726849     6.63044  0.000165373
2680   0.0995904    0.730315     3.38321  -0.000452607
2690    0.097068     0.72956     3.69246  0.000183552
2700   0.0959194    0.729216     3.30645  2.86467e-05
2710   0.0964951    0.729388     4.23297  2.88658e-05
2720   0.0953421    0.729043     2.45564  0.000548557
2730    0.085524    0.726102     4.46598  0.000462716
2740   0.0860877    0.726271     3.07556  8.25275e-05
2750   0.0838734    0.725608     3.53772  8.25871e-05
2760    0.084436    0.725776     2.61083  4.81293e-05
2770   0.0829108     0.72532     2.91977  0.000501661
2780   0.0744028    0.722771      4.0017  0.000310468
2790   0.0767015     0.72346     3.92335  -0.000667482
2800   0.0877524     0.72677     3.99853  -0.000230876
2810    0.081319    0.724843     5.31354  0.000767084
2820   0.0724107    0.722175     5.23761  0.000259741
2830   0.0761242    0.723287     3.07352  -0.00010807
2840   0.0745721    0.722822     3.22795  -5.59405e-05
2850    0.077243    0.723622      2.5318  -0.000267463
2860   0.0799214    0.724424     5.62188  0.000191104
2870   0.0734209    0.722477     5.85451  0.000190975
2880   0.0761019     0.72328     6.62644  -3.81593e-05
2890   0.0741841    0.722706     4.46303  0.000209781
2900   0.0719063    0.722023     5.00355  0.00022808
2910   0.0696225    0.721339     4.61754  0.000193154
2920   0.0680432    0.720866     6.24059  -3.78009e-05
2930   0.0703785    0.721566     5.15881  0.000105075
2940   0.0659417    0.720237     5.69894  0.000372815
2950   0.0629222    0.719333     6.16201  0.000534985
2960    0.055242    0.717032     6.62644  0.000303333
2970   0.0568555    0.717516     5.85375  7.16319e-05
2980   0.0538093    0.716603     6.00917  -0.000413602
2990   0.0651276    0.719993       5.157  3.96743e-08
3000   0.0538085    0.716603     5.62173  0.000701134
3010   0.0511049    0.715793      6.0857  7.22289e-05
3020    0.052364     0.71617     7.93904  -0.000324836
3030   0.0576016    0.717739     5.54293  0.000615512
3040   0.0400537    0.712483     5.23655  0.000597542
3050   0.0456507     0.71416     6.70373  -0.000415343
3060   0.0483606    0.714971     6.77944  -0.000562169
3070   0.0568941    0.717527     7.55017  0.000765204
3080   0.0330565    0.710387     8.24843  0.000437005
3090    0.048154    0.714909     6.77884  -0.000526248
3100   0.0435815     0.71354     7.62867  0.000421323
3110   0.0397276    0.712386     8.32407  0.00014797
3120   0.0406221    0.712653     8.09272  -7.12438e-05
3130   0.0411524    0.712812     7.39747  0.000350836
3140   0.0336054    0.710552     6.39328  2.02985e-05
3150   0.0407465    0.712691      9.1742  -1.54328e-05
3160    0.033914    0.710644      5.7748  0.000776438
3170   0.0252177     0.70804     6.08518  -5.24279e-05
3180   0.0349626    0.710958      6.7017  0.000540567
3190   0.0144064    0.704801     7.47522  0.000262129
3200     0.02972    0.709388     7.39619  -0.000365084
3210   0.0217081    0.706988     6.16126  5.93234e-05
3220   0.0285335    0.709033     8.55436  0.000246627
3230   0.0167755    0.705511     5.31022  0.000488199
3240   0.0187695    0.706108     6.77725  0.000154776
3250     0.01368    0.704584     5.30894  0.000322905
3260   0.0123114    0.704174     6.77771  2.47363e-05
3270   0.0131853    0.704436      6.6232  -5.00299e-05
3280    0.013312    0.704474     7.85918  -0.000181592
3290   0.0168171    0.705524     7.31724  0.000100109
3300   0.0113098    0.703874     8.16684  0.000551542
3310  0.00578627     0.70222     7.08589  6.40796e-06
3320   0.0111817    0.703836     8.93961  -8.71642e-05
3330  0.00752955    0.702742     7.93602  0.000441393
3340  0.00235383    0.701192     7.55009  -1.19204e-05
3350  0.00776796    0.702813     8.86307  -0.000314647
3360  0.00864676    0.703076     9.48012  0.000272945
3370  0.00230905    0.701178     9.55771  0.000273234
3380  0.00318209     0.70144     10.4077  -8.74428e-05
3390  0.00405791    0.701702     10.2522  -0.000431184
3400   0.0118058    0.704023     10.6372  0.000275194
3410  -0.00144597    0.700054     9.55779  0.000810348
3420  -0.00440119    0.699168     10.6395  6.59403e-05
3430  -0.00276478    0.699659     11.4886  0.000469682
3440  -0.0137948    0.696355     11.1794  0.000258667
3450  -0.00793811    0.698109     11.7976  -0.000259204
3460  -0.00861074    0.697908     10.9475  -0.000144776
3470  -0.00504259    0.698976     10.4831  0.000222109
3480  -0.0130529    0.696577     11.9519  0.000105821
3490   -0.007159    0.698342     10.0971  -6.71741e-05
3500  -0.0117095    0.696979     9.55598  0.000164697
3510  -0.0104529    0.697356     11.1788  0.000126786
3520  -0.0142452     0.69622     10.5606  0.000165701
3530   -0.013767    0.696363     9.71003  0.000127562
3540  -0.0167964    0.695456     9.01546  0.000342478
3550  -0.0206165    0.694312     9.40162  0.000206597
3560  -0.0209284    0.694218     9.16899   0.0001879
3570  -0.0243745    0.693186     10.0957  0.00071791
3580  -0.0352866    0.689918      10.716  0.000169443
3590  -0.0277634    0.692171     9.94266  -0.000635413
3600  -0.0225783    0.693724     10.6368  -2.66169e-05
3610   -0.027231    0.692331     11.1778  0.000387114
3620  -0.0303206    0.691405     8.39743  0.000487313
3630  -0.0369773    0.689411     9.55749   0.0003499
3640  -0.0373186    0.689309     11.7966  0.000311861
3650  -0.0432145    0.687543     8.32097  0.000133632
3660  -0.0399912    0.688509     9.40215  -0.000601383
3670  -0.0311869    0.691146     10.0959  -0.000383662
3680   -0.032318    0.690807     12.0271  0.000392726
3690  -0.0390414    0.688793     9.55575  0.000493512
3700  -0.0421882    0.687851     8.55157  0.000215065
3710  -0.0433427    0.687505     8.55119  0.000376338
3720   -0.049715    0.685596     9.40192  0.000598059
3730  -0.0553039    0.683922      9.1699  -0.000526607
3740  -0.0391829    0.688751     9.86379  -0.000546726
3750  -0.0443693    0.687197      11.641  0.000701174
3760  -0.0532064    0.684551     11.7954  0.000581871
3770  -0.0560068    0.683712     10.7919  0.000422229
3780  -0.0616509    0.682021     11.6427  0.000139433
3790  -0.0587954    0.682877     12.1054  -0.000184458
3800  -0.0579618    0.683126     11.4859  -0.000124199
3810  -0.0563114    0.683621     11.9495  0.000323821
3820  -0.0644382    0.681186     11.9504  0.000181224
3830  -0.0599359    0.682535     11.7177  -6.25074e-05
3840   -0.063188    0.681561     10.4824  -0.000493393
3850  -0.0500681    0.685491     10.9441  -8.34527e-05
3860   -0.061519    0.682061     12.1041  0.000448418
3870  -0.0590364    0.682804     12.9534  -0.000166298
3880   -0.058193    0.683057     11.1768  0.000183443
3890  -0.0627053    0.681706     11.8726  -0.000126109
3900  -0.0556708    0.683812     11.7947  -0.000601224
3910  -0.0506808    0.685307     13.1842  3.87661e-05
3920  -0.0564462     0.68358     13.1076  0.000162537
3930  -0.0539315    0.684333     12.6452  -0.000605214
3940  -0.0443419    0.687206     11.6382  -0.000377672
3950  -0.0463781    0.686596     12.6428  0.000600159
3960  -0.0563451     0.68361     12.9524  0.00032999
3970  -0.0529779    0.684619     11.2526  6.01791e-05
3980  -0.0575486     0.68325      13.184  5.97313e-05
3990  -0.0541725    0.684261     12.8748  -4.43283e-05
4000  -0.0566621    0.683516     12.1802  -2.95527e-06
4010  -0.0541134    0.684279     12.1023  -0.00019209
4020  -0.0528203    0.684666     12.0242  -8.73134e-05
4030  -0.0523672    0.684802     11.4833  8.13333e-05
4040   -0.054447    0.684179      9.8619  0.000250726
4050  -0.0573817      0.6833     12.1021  -0.000448169
4060  -0.0454836    0.686864     12.0235  -2.36915e-05
4070  -0.0569078    0.683442     10.3263  0.000484875
4080  -0.0551811    0.683959     10.6346  6.14328e-05
4090  -0.0581365    0.683074     11.8704  -0.000365681
4100  -0.0478675     0.68615     10.7104  -4.50844e-05
4110  -0.0572348    0.683344     10.0158  0.000552816
4120  -0.0589238    0.682838     8.77959  -0.000109751
4130  -0.0550398    0.684001     8.47042  -0.000582507
4140  -0.0472736    0.686328     8.93304  6.16817e-05
4150  -0.0562734    0.683632     11.4066  0.00068592
4160   -0.060992    0.682219     10.3248  -8.90348e-05
4170  -0.0544927    0.684165     10.3237  -0.000261562
4180  -0.0557608    0.683785     9.78257  0.000170428
4190  -0.0579013    0.683144     9.93776  0.000431562
4200   -0.064392      0.6812     10.0926  0.000171642
4210  -0.0613341    0.682116     9.62799  -0.000262766
4220  -0.0591367    0.682774      10.555  -0.000263741
4230  -0.0560593    0.683696     9.62753  1.97016e-05
4240  -0.0595307    0.682656     9.93663  -0.000243662
4250  -0.0511861    0.685156     10.3227  -0.000221572
4260  -0.0550993    0.683984     9.31844  0.000150249
4270   -0.054191    0.684256     10.7087  -6.89452e-05
4280  -0.0537204    0.684397     9.54911  -0.000510358
4290  -0.0439839    0.687313     10.2435  -0.00020205
4300  -0.0496794    0.685607     9.70437  0.00079192
4310  -0.0598223    0.682569     10.5554  0.000262189
4320  -0.0549232    0.684036     9.78076  -0.000379691
4330  -0.0522284    0.684843     9.24055  0.000175035
4340  -0.0584239    0.682988     9.54994  -4.80697e-05
4350  -0.0512671    0.685131     8.46824  -4.70249e-05
4360  -0.0574834     0.68327      8.8556  1.87265e-05
4370  -0.0516416    0.685019     12.0208  -0.000159393
4380  -0.0542955    0.684224     11.7125  0.00017602
4390   -0.055162    0.683965     10.7854  -0.000273025
4400   -0.048835     0.68586      12.253  -0.000678866
4410  -0.0415847    0.688031     10.3206  -0.000455512
4420  -0.0397248    0.688589     10.7069  -0.000118468
4430  -0.0392153    0.688741     10.7059  -0.000164328
4440  -0.0364382    0.689573     10.4733  0.000311841
4450  -0.0454521    0.686873     12.5599  0.000152756
4460  -0.0394933    0.688658     12.0969  -0.000437482
4470  -0.0367025    0.689494     12.4057  0.000336398
4480  -0.0462213    0.686643     10.0888  0.00026791
4490  -0.0420607    0.687889     10.4742  -0.000164935
4500  -0.0429226    0.687631     11.1704  -0.000234816
4510  -0.0373644    0.689295      11.169  -0.0004879
4520  -0.0331646    0.690553     12.5587  8.57811e-05
4530    -0.03908    0.688782     11.0134  0.000154368
4540  -0.0362519    0.689629     10.8594  -0.000560627
4550  -0.0278675     0.69214     10.4719  -0.000122229
4560  -0.0338074    0.690361     11.8624  0.000223891
4570  -0.0323453    0.690799     11.6313  -0.000169701
4580  -0.0304133    0.691377     13.0984  0.000109124
4590  -0.0345278    0.690145     12.3267  -0.000334169
4600  -0.0237299    0.693379     11.0124  -0.00026394
4610  -0.0292489    0.691726      11.553  0.000435861
4620  -0.0324472    0.690768      10.704  1.55423e-05
4630  -0.0295598    0.691633     12.4797  -0.000265791
4640  -0.0271313     0.69236     12.4023  -0.000572895
4650  -0.0181019    0.695065     10.7789  -0.000315015
4660   -0.020831    0.694247     11.7063  -0.000128219
4670  -0.0155375    0.695833     12.1693  -0.000483035
4680  -0.0111703    0.697141     12.1693  -5.80099e-05
4690  -0.0143773     0.69618     12.0154  0.000107403
4700  -0.0133184    0.696498     11.0103  -0.000510846
4710  -0.0041604    0.699241     11.3187  -0.000321144
4720  -0.00689552    0.698421     12.1684  1.10945e-05
4730  -0.00438229    0.699174     11.8598  -8.41791e-05
4740  -0.00521194    0.698926     12.5556  -0.000396687
4750  0.00355144     0.70155     14.4082  -0.000108826
4760  -0.00303542    0.699577     12.2468  0.000250488
4770  -0.00145831     0.70005     13.0968  -1.31741e-05
4780  -0.00277194    0.699656     12.9419  -0.000231025
4790  0.00316219    0.701434     12.3995  3.51642e-05
4800  -0.00347522    0.699446     12.5556  9.83084e-06
4810  0.00296557    0.701375     12.3998  -6.18109e-05
4820   -0.002239    0.699816     12.4769  0.000229114
4830  -0.00161672    0.700002     12.4001  -0.000477194
4840  0.00730487    0.702675      14.949  -0.000698318
4850   0.0123496    0.704185     13.4806  -0.000186935
4860   0.0110436    0.703794     12.2438  0.000253632
4870  0.00727701    0.702666     13.3261  0.000377403
4880  0.00349552    0.701534     14.7945  0.000107781
4890  0.00512139    0.702021     14.7166  -0.0004099
4900   0.0116935    0.703989     12.1662  -1.51144e-05
4910  0.00542368    0.702111     14.3306  0.000206716
4920   0.0075592    0.702751     13.0936  -0.000363005
4930   0.0126838    0.704286       13.17  -0.000165045
4940   0.0108601    0.703739     13.9433  -0.000216249
4950   0.0170088    0.705581      13.247  3.3602e-05
4960   0.0101881    0.703538     14.4836  0.000658378
4970  0.00384119    0.701637     14.4072  0.000234527
4980  0.00549751    0.702133     15.6431  6.03383e-05
4990  0.00263443    0.701276     16.8015  -0.000113851
