Time   Number   
ps   
0          11          58
10          13          52
20          12          61
30          12          58
40          12          53
50          12          51
60          10          53
70          11          54
80          12          55
90          11          51
100          10          57
110          11          58
120          12          54
130          13          56
140          10          63
150          12          56
160          12          57
170          11          58
180          12          55
190          13          60
200          12          55
210          12          61
220          13          57
230          12          57
240          12          57
250          12          56
260          11          56
270          12          58
280          11          56
290           9          61
300          13          57
310          11          60
320          11          56
330          14          51
340          12          59
350          12          56
360          12          58
370          13          54
380          12          59
390          11          57
400          12          62
410          15          57
420          16          57
430          13          56
440          14          59
450          13          60
460          13          57
470          14          54
480          13          55
490          14          54
500          13          55
510          12          55
520          12          56
530          12          57
540          13          58
550          12          58
560          11          58
570          11          58
580          11          59
590          12          57
600          14          57
610          15          60
620          14          57
630          12          60
640          14          57
650          14          59
660          12          59
670          13          58
680          14          56
690          14          57
700          14          59
710          12          64
720          11          61
730          13          56
740          12          59
750          10          58
760          11          56
770          12          57
780          12          56
790          10          65
800          12          59
810          13          58
820          12          59
830          12          59
840          13          56
850          14          57
860          13          58
870          13          65
880          13          56
890          10          60
900          14          64
910          14          58
920          14          58
930          12          56
940          13          57
950          13          59
960          11          59
970          12          57
980          12          60
990          12          62
1000          12          61
1010          12          63
1020          13          59
1030          10          59
1040          11          57
1050          13          63
1060          14          62
1070          13          59
1080          14          59
1090          11          70
1100          11          64
1110          11          62
1120          11          57
1130          13          63
1140          12          52
1150          13          54
1160          14          56
1170          13          60
1180          13          59
1190          13          60
1200          15          57
1210          13          56
1220          15          52
1230          15          53
1240          12          59
1250          13          57
1260          13          62
1270          12          61
1280          10          62
1290          12          59
1300          10          57
1310          13          51
1320          12          54
1330          10          56
1340          11          55
1350          11          54
1360          10          59
1370          13          50
1380          12          54
1390          12          61
1400          12          54
1410          11          61
1420          11          59
1430          12          59
1440          12          53
1450          11          53
1460          12          56
1470          12          52
1480          12          60
1490          12          51
1500          12          62
1510          11          55
1520          13          58
1530          12          59
1540          13          58
1550          13          59
1560          12          58
1570          13          57
1580          12          59
1590          14          54
1600          11          61
1610          12          62
1620          11          61
1630          12          54
1640           9          62
1650          10          61
1660          10          60
1670          11          60
1680          10          62
1690          11          59
1700          12          60
1710          12          57
1720          11          57
1730          11          54
1740          10          59
1750          11          56
1760          11          66
1770          12          55
1780           8          59
1790          12          59
1800          12          57
1810          12          59
1820          11          67
1830           8          59
1840          11          53
1850          14          60
1860          14          57
1870          13          55
1880          12          57
1890          13          55
1900          13          50
1910          13          53
1920          13          54
1930          13          55
1940          13          60
1950          13          59
1960          13          57
1970          12          56
1980          13          57
1990          13          55
2000          15          54
2010          12          58
2020          12          57
2030          11          59
2040          12          56
2050          12          55
2060          12          61
2070          10          58
2080          10          59
2090          12          62
2100          12          59
2110          13          61
2120          13          55
2130          14          64
2140          12          61
2150          11          59
2160          12          56
2170          13          55
2180          13          62
2190          11          61
2200          13          57
2210          15          59
2220          11          58
2230          12          58
2240          12          55
2250          12          57
2260          12          56
2270          13          58
2280          12          56
2290          13          57
2300          12          59
2310          10          63
2320          10          60
2330          12          57
2340          13          54
2350          12          61
2360          14          57
2370          11          62
2380          13          58
2390          11          65
2400          11          53
2410          14          56
2420          13          59
2430          12          61
2440          11          56
2450          11          60
2460          12          57
2470          13          59
2480          14          62
2490          12          55
2500          13          63
2510          12          60
2520          13          57
2530          14          57
2540          14          59
2550          13          57
2560          13          63
2570          13          66
2580          14          68
2590          14          57
2600          11          58
2610          13          59
2620          13          58
2630          12          58
2640          14          63
2650          13          62
2660          13          56
2670          13          55
2680          13          52
2690          13          60
2700          14          59
2710          13          56
2720          12          57
2730          10          67
2740          13          59
2750          14          59
2760          15          60
2770          15          59
2780          15          60
2790          14          63
2800          15          56
2810          12          59
2820          15          58
2830          11          62
2840          14          58
2850          16          58
2860          14          60
2870          14          58
2880          13          62
2890          15          62
2900          13          55
2910          15          57
2920          16          57
2930          15          58
2940          14          57
2950          15          60
2960          13          59
2970          13          64
2980          16          53
2990          13          58
3000          14          59
3010          13          61
3020          13          56
3030          16          56
3040          15          64
3050          12          67
3060          13          61
3070          14          59
3080          13          65
3090          15          58
3100          13          60
3110          17          57
3120          15          59
3130          15          63
3140          15          58
3150          17          63
3160          13          62
3170          15          60
3180          16          57
3190          16          61
3200          13          61
3210          15          65
3220          15          59
3230          15          54
3240          12          59
3250          13          59
3260          13          58
3270          11          58
3280          14          56
3290          15          60
3300          11          61
3310          13          59
3320          13          60
3330          15          61
3340          16          57
3350          16          54
3360          15          55
3370          15          58
3380          13          58
3390          11          58
3400          15          61
3410          12          62
3420          13          63
3430          10          61
3440          13          62
3450          13          58
3460          15          62
3470          12          57
3480          13          53
3490          12          58
3500          11          63
3510          11          63
3520          12          57
3530          11          60
3540          12          61
3550          12          61
3560          15          60
3570          13          63
3580          11          61
3590          15          65
3600          13          62
3610          13          59
3620          13          62
3630          17          59
3640          11          58
3650          11          61
3660          12          59
3670          13          63
3680          15          57
3690          12          59
3700          13          57
3710          14          57
3720          14          62
3730          16          54
3740          11          58
3750          12          58
3760          13          59
3770          14          55
3780          12          58
3790          13          59
3800          15          52
3810          13          64
3820          13          57
3830          13          57
3840          13          56
3850          14          57
3860          15          54
3870          13          57
3880          15          58
3890          14          58
3900          13          55
3910          15          57
3920          13          60
3930          15          57
3940          15          55
3950          15          61
3960          15          56
3970          15          53
3980          13          64
3990          14          59
4000          12          56
4010          13          55
4020          14          60
4030          13          57
4040          13          54
4050          13          59
4060          16          58
4070          12          58
4080          15          62
4090          14          59
4100          15          55
4110          16          58
4120          14          56
4130          14          64
4140          14          59
4150          12          60
4160          12          59
4170          12          56
4180          14          60
4190          13          61
4200          15          58
4210          14          60
4220          14          56
4230          16          56
4240          14          60
4250          12          59
4260          11          60
4270          11          65
4280          15          60
4290          13          57
4300          15          62
4310          13          58
4320          14          61
4330          14          62
4340          14          62
4350          15          60
4360          13          58
4370          14          55
4380          14          57
4390          11          58
4400          11          63
4410          13          63
4420          12          61
4430          13          58
4440          14          58
4450          10          63
4460          13          59
4470          13          65
4480          15          58
4490          15          62
4500          14          62
4510          15          60
4520          15          64
4530          12          64
4540          14          58
4550          14          54
4560          14          59
4570          12          64
4580          12          62
4590          15          61
4600          13          59
4610          16          66
4620          16          60
4630          15          60
4640          12          64
4650          16          64
4660          14          61
4670          17          61
4680          13          61
4690          15          64
4700          16          63
4710          14          64
4720          15          60
4730          15          61
4740          12          67
4750          16          66
4760          13          65
4770          17          60
4780          16          64
4790          14          65
4800          15          66
4810          13          67
4820          14          66
4830          13          63
4840          12          61
4850          13          64
4860          13          65
4870          15          63
4880          14          54
4890          14          56
4900          14          58
4910          16          57
4920          14          61
4930          15          60
4940          15          58
4950          13          63
4960          12          58
4970          14          54
4980          16          55
4990          14          60
5000          15          54
5010          14          58
5020          15          59
5030          15          55
5040          13          57
5050          14          53
5060          14          56
5070          14          56
5080          17          60
5090          14          55
5100          15          66
5110          13          58
5120          13          59
5130          15          55
5140          13          61
5150          14          60
5160          13          60
5170          14          60
5180          14          55
5190          13          61
5200          15          56
5210          16          55
5220          15          59
5230          15          54
5240          13          53
5250          14          55
5260          14          57
5270          15          61
5280          15          58
5290          16          58
5300          13          62
5310          14          57
5320          15          51
5330          14          55
5340          14          55
5350          14          60
5360          13          58
5370          15          58
5380          14          58
5390          15          58
5400          14          55
5410          14          59
5420          14          58
5430          13          60
5440          15          61
5450          14          59
5460          14          62
5470          14          60
5480          13          58
5490          15          58
5500          14          59
5510          13          59
5520          15          60
5530          14          61
5540          13          59
5550          13          57
5560          12          58
5570          12          60
5580          14          56
5590          13          54
5600          14          56
5610          15          57
5620          12          56
5630          14          55
5640          13          58
5650          13          56
5660          14          57
5670          14          53
5680          13          55
5690          13          58
5700          15          59
5710          14          60
5720          14          62
5730          14          52
5740          13          56
5750          13          57
5760          15          59
5770          15          57
5780          13          62
5790          14          57
5800          13          61
5810          14          55
5820          16          59
5830          13          61
5840          13          58
5850          12          57
5860          13          54
5870          13          55
5880          11          58
5890          12          59
5900          13          59
5910          12          57
5920          12          55
5930          13          55
5940          11          58
5950          11          55
5960          13          55
5970          14          59
5980          15          59
5990          12          54
6000          12          60
6010          10          57
6020          11          54
6030          11          55
6040          12          61
6050          12          58
6060          12          54
6070          11          58
6080          12          58
6090          13          57
6100          12          54
6110          13          59
6120          12          58
6130          12          58
6140          12          55
6150          13          54
6160          13          55
6170          13          57
6180          13          55
6190          12          60
6200          12          60
6210          14          59
6220          14          58
6230          13          54
6240          14          57
6250          14          60
6260          15          54
6270          11          58
6280          12          53
6290          13          55
6300          11          59
6310          13          53
6320          13          55
6330          11          59
6340          13          59
6350          14          58
6360          15          54
6370          13          56
6380          14          59
6390          14          55
6400          14          59
6410          15          55
6420          13          57
6430          13          57
6440          13          53
6450          15          57
6460          15          60
6470          15          59
6480          14          62
6490          14          55
6500          15          57
6510          16          63
6520          12          61
6530          15          58
6540          16          59
6550          14          62
6560          15          56
6570          13          59
6580          15          55
6590          15          55
6600          14          55
6610          14          58
6620          14          55
6630          15          55
6640          15          58
6650          15          66
6660          15          60
6670          16          59
6680          15          56
6690          15          59
6700          13          63
6710          15          58
6720          15          61
6730          15          59
6740          14          56
6750          14          58
6760          16          58
6770          16          55
6780          14          57
6790          14          62
6800          14          57
6810          14          58
6820          14          60
6830          17          59
6840          16          55
6850          14          58
6860          14          64
6870          16          56
6880          17          59
6890          14          62
6900          14          56
6910          14          56
6920          14          62
6930          14          59
6940          13          59
6950          14          62
6960          15          56
6970          15          56
6980          14          58
6990          14          59
7000          14          60
7010          14          56
7020          12          57
7030          14          60
7040          15          59
7050          17          61
7060          16          58
7070          12          62
7080          13          59
7090          15          56
7100          12          56
7110          15          61
7120          15          58
7130          14          55
7140          14          59
7150          15          60
7160          13          61
7170          14          62
7180          13          66
7190          16          66
7200          14          66
7210          17          57
7220          15          64
7230          16          58
7240          13          60
7250          14          58
7260          13          59
7270          14          58
7280          13          58
7290          13          62
7300          11          64
7310          12          58
7320          11          62
7330          12          65
7340          12          60
7350          12          66
7360          14          55
7370          13          59
7380          13          60
7390          11          59
7400          13          55
7410          13          55
7420          13          60
7430          13          60
7440          12          61
7450          12          63
7460          15          64
7470          14          60
7480          16          58
7490          15          58
7500          13          66
7510          13          60
7520          15          59
7530          14          61
7540          14          61
7550          12          69
7560          15          59
7570          14          67
7580          12          62
7590          14          57
7600          13          61
7610          12          55
7620          15          57
7630          12          64
7640          12          65
7650          12          61
7660          14          62
7670          14          63
7680          12          63
7690          14          66
7700          13          56
7710          14          60
7720          13          57
7730          16          61
7740          16          59
7750          14          57
7760          14          59
7770          14          62
7780          13          61
7790          13          59
7800          14          55
7810          14          59
7820          14          59
7830          15          57
7840          14          59
7850          14          59
7860          14          59
7870          13          61
7880          15          57
7890          10          58
7900          11          63
7910          13          59
7920          16          58
7930          13          58
7940          14          55
7950          12          59
7960          14          58
7970          14          54
7980          11          61
7990          16          57
8000          12          58
8010          14          56
8020          15          59
8030          12          62
8040          12          64
8050          12          66
8060          14          56
8070          14          58
8080          14          58
8090          15          59
8100          13          61
8110          14          63
8120          13          63
8130          14          63
8140          15          58
8150          14          59
8160          11          68
8170          12          56
8180          13          55
8190          12          63
8200          13          62
8210          15          59
8220          12          64
8230          12          59
8240          12          61
8250          12          55
8260          12          55
8270          13          63
8280          13          55
8290          13          54
8300          13          57
8310          12          54
8320          10          64
8330          12          62
8340          13          59
8350          12          57
8360          13          59
8370          12          57
8380          13          58
8390          12          60
8400          13          55
8410          11          63
8420          13          55
8430          12          58
8440          14          61
8450          12          59
8460          13          55
8470          12          58
8480          13          54
8490          13          60
8500          13          58
8510          12          61
8520          11          61
8530          14          55
8540          12          55
8550          13          56
8560          13          59
8570          12          54
8580          12          60
8590          12          62
8600          15          56
8610          13          55
8620          15          61
8630          15          57
8640          13          57
8650          13          60
8660          11          57
8670          15          53
8680          13          58
8690          14          53
8700          10          59
8710          12          56
8720          13          58
8730          12          59
8740          15          56
8750          15          57
8760          13          55
8770          12          58
8780          13          57
8790          13          63
8800          12          56
8810          12          58
8820          13          57
8830          13          62
8840          11          59
8850          14          58
8860          12          63
8870          11          58
8880          14          57
8890          14          60
8900          12          57
8910          11          61
8920          12          57
8930          14          60
8940          14          57
8950          12          59
8960          12          62
8970          11          55
8980          12          61
8990          13          63
9000          11          57
9010          11          58
9020          12          55
9030          12          64
9040          14          57
9050          14          57
9060          14          58
9070          11          54
9080          12          56
9090          13          54
9100          11          57
9110          12          56
9120          12          55
9130          14          56
9140          15          56
9150          13          57
9160          13          60
9170          12          60
9180          15          56
9190          13          55
9200          17          58
9210          15          58
9220          16          55
9230          14          61
9240          15          56
9250          16          53
9260          16          55
9270          16          54
9280          14          60
9290          13          58
9300          15          57
9310          14          57
9320          15          55
9330          14          57
9340          13          56
9350          17          57
9360          14          54
9370          11          59
9380          12          60
9390          13          64
9400          12          60
9410          13          53
9420          13          61
9430          14          55
9440          13          57
9450          14          55
9460          13          56
9470          12          56
9480          11          55
9490          12          56
9500          16          57
9510          13          58
9520          15          56
9530          13          58
9540          14          55
9550          14          56
9560          15          60
9570          16          61
9580          15          56
9590          14          54
9600          13          55
9610          14          60
9620          15          58
9630          14          60
9640          14          57
9650          14          57
9660          12          58
9670          14          55
9680          15          57
9690          15          58
9700          15          59
9710          15          57
9720          14          57
9730          15          59
9740          14          62
9750          13          58
9760          12          58
9770          14          59
9780          16          58
9790          14          57
9800          14          57
9810          13          60
9820          14          60
9830          15          54
9840          14          58
9850          14          57
9860          17          57
9870          14          59
9880          15          54
9890          16          61
9900          15          63
9910          16          55
9920          15          57
9930          16          60
9940          16          54
9950          17          57
9960          15          53
9970          16          58
9980          17          54
9990          17          60
10000          17          58
