Time   C(t)   
ps   
0           1           1  5.2712e-10   0.0357159
10    0.644407       0.837     1.08575   0.0193741
20    0.612517    0.822382     2.02049  0.00303234
30     0.58376      0.8092   -0.596979   0.0024388
40    0.563742    0.800024    -2.93428  0.00209395
50    0.541881    0.790003    -3.68173   0.0017976
60    0.527789    0.783544    -1.34424  0.00109975
70    0.519886    0.779921    -3.58858  0.000720915
80    0.513371    0.776935    -2.46819  0.00114439
90    0.496998    0.769429    -2.46773   0.0012568
100    0.488235    0.765412  -0.0370116   0.0011792
110    0.473414    0.758619    -2.93492  0.00106037
120    0.467028    0.755691     -1.0649  0.00047792
130    0.463856    0.754237   -0.505933  0.00102428
140    0.446542    0.746301    0.244615  0.000894253
150    0.445971    0.746039    -4.05714  0.000714792
160    0.432246    0.739748    0.992059  0.000634536
170     0.43328    0.740222    0.149461  0.000129685
180    0.429652    0.738559     1.27058  0.000758943
190    0.418101    0.733264    -2.09324  0.000719421
200    0.415264    0.731963   -0.879518  8.06779e-05
210    0.416488    0.732524     0.05376  0.000915819
220    0.396948    0.723567     1.08539  0.000824881
230     0.39999    0.724962     1.82936  0.000440094
240    0.388146    0.719532     0.42908  0.000654711
250    0.386896     0.71896   -0.786099  0.000206834
260    0.384009    0.717636   -0.226771  0.000616436
270    0.374567    0.713308    -1.53546  0.000648111
280    0.371047    0.711695   -0.319551  0.000280646
290    0.368954    0.710735    -2.74973  0.000383942
300    0.363368    0.708175    -5.08584  0.000281796
310    0.363318    0.708152    -2.93866  0.000642617
320    0.350516    0.702283    -4.15156  0.000859496
330    0.346129    0.700272    -4.15165  0.000377336
340    0.342969    0.698824    -1.53491  0.000223431
350     0.34166    0.698224    -1.25502  0.000347929
360     0.33601    0.695634    0.706599  0.000420779
370    0.333244    0.694366   0.0537607  0.000142358
380    0.333163    0.694329    -2.37778  0.000267135
390    0.327902    0.691917    0.893254  0.000827456
400    0.316614    0.686743    -2.09424  0.000423965
410    0.319422     0.68803    -1.81544  -5.24536e-05
420    0.317663    0.687224  -0.0412103  0.000124069
430    0.316941    0.686893    -1.44323  0.000238912
440    0.312885    0.685034   -0.603824  0.000395599
450    0.309029    0.683266    -1.25666  8.33809e-05
460    0.311217    0.684269   -0.791028  0.000146563
470    0.306098    0.681923    -3.12641  0.00020922
480    0.307033    0.682351   -0.509401  0.000419356
490    0.297711    0.678078    0.425702  0.000440674
500    0.298219    0.678311    0.706051  0.000295228
510    0.291806    0.675371    -2.47148  0.000442527
520    0.289369    0.674254    0.146267  0.000296515
530    0.285876    0.672653   -0.601452  0.000118139
540    0.287006    0.673171    0.426342  4.48808e-05
550    0.284978    0.672242    -1.34999  -3.95626e-05
560    0.287797    0.673534    -2.00539  9.78664e-05
570    0.283021    0.671344      1.1716  0.000351329
580    0.280771    0.670313    -1.72421  0.000383936
590    0.275342    0.667825   -0.415252  0.000225727
600    0.276256    0.668244   -0.135816  0.000215961
610    0.271023    0.665845   -0.974762  5.68554e-05
620    0.275119    0.667722   -0.509492  0.000323106
630    0.264561    0.662882    -3.03254  0.000440031
640    0.266319    0.663688    -1.35045  0.00018608
650    0.260839    0.661177    -1.62952  0.000377959
660    0.258759    0.660223   -0.789019  -7.99164e-05
670    0.262437    0.661909   -0.976223  -5.83902e-05
680    0.259927    0.660758     -1.0701  -0.00018716
690    0.266181    0.663625    -1.91197  -0.000101475
700    0.261957    0.661689    -1.07101  0.000347851
710    0.259224    0.660436   -0.323202  4.82872e-05
720    0.260991    0.661246    -1.25922  -2.65315e-05
730    0.259754    0.660679     1.26428  0.00042481
740    0.252495    0.657351    -1.72613  0.000500722
750     0.24974    0.656089    -1.63207  0.00053438
760    0.241807    0.652452    -1.81873  0.000330336
770    0.243133     0.65306   -0.605559  0.000385541
780    0.234096    0.648918   -0.603733  0.000666861
790    0.229796    0.646947    -2.28646  -9.97655e-05
800    0.236092    0.649832    -1.91525  -0.000240238
810    0.234601    0.649149   -0.421002  0.000246844
820    0.231155    0.647569     1.16858  0.000268988
830    0.229221    0.646683    0.982567  0.000313146
840    0.224892    0.644699   -0.511957  0.000498667
850    0.219248    0.642111      1.1705  0.000151109
860     0.22187    0.643313   -0.230695  -3.3477e-05
870    0.219917    0.642418    0.889421  4.2624e-05
880    0.221017    0.642923    0.514193  6.47426e-05
890    0.218622    0.641825     0.32772  0.000261609
900    0.215785    0.640524    -2.85054  0.000316917
910    0.212284    0.638919    0.326898   0.0003176
920    0.209433    0.637612   -0.795409  0.000461023
930    0.203063    0.634693     1.07562  0.000626695
940    0.196899    0.631867   -0.325848  0.000111026
950    0.200843    0.633675    -1.44925  -4.23573e-05
960    0.197746    0.632255   -0.419085  0.000177681
970    0.197289    0.632046     -2.4765  5.67973e-05
980     0.19661    0.631735    0.328177  -2.04407e-05
990    0.197698    0.632233    0.233114  0.000200852
1000    0.192593    0.629893    -1.45007  0.000178824
1010    0.194122    0.630594   -0.982703  0.000268266
1020    0.187228    0.627434    -1.16845  0.000368279
1030    0.186756    0.627218   0.0468238  -3.05243e-05
1040    0.187838    0.627714    -0.32813  5.84878e-05
1050    0.185586    0.626681     1.16803  0.000136357
1060    0.185111    0.626464   -0.421732  0.000348605
1070    0.178614    0.623485    0.514375  0.000349067
1080     0.17813    0.623263      1.5418  9.31732e-05
1090    0.176751    0.622631   -0.887824  8.21397e-05
1100    0.176487     0.62251   -0.141932  0.000362357
1110    0.169504    0.619309    0.606791  4.03151e-06
1120    0.176407    0.622473   -0.234438  -0.000309453
1130    0.175693    0.622146   -0.982977  4.03747e-06
1140    0.176326    0.622436   0.0460025  8.2875e-05
1150    0.174035    0.621386   -0.234347  0.000173025
1160    0.172865     0.62085    0.980467  0.000139646
1170    0.171242    0.620106     2.10223  0.000399532
1180    0.164875    0.617187    0.512824  0.000580996
1190    0.159622     0.61478    0.326077  0.000276919
1200    0.159336    0.614649    -1.72997  7.39351e-05
1210    0.158144    0.614102    -2.00986  7.40655e-05
1220    0.157855     0.61397    -2.75785  0.00036945
1230    0.150755    0.610715    -1.26241  0.000176692
1240    0.154321     0.61235     -1.3572  2.97897e-05
1250    0.150159    0.610442    -1.45035  0.000154723
1260    0.151227    0.610931   -0.796139  -0.000106917
1270    0.152297    0.611422    -2.38645  0.000109746
1280    0.149032    0.609925     1.07252  0.000189773
1290    0.148502    0.609682   -0.889558  0.000178935
1300    0.145453    0.608285     -1.4508  3.02583e-05
1310    0.147897    0.609405    -2.19916  0.00022563
1320     0.14094    0.606216    -2.10483  0.000179676
1330    0.144303    0.607758    -3.69396  -0.000302172
1340    0.146984    0.608986    -1.91918  -3.66047e-06
1350    0.144376    0.607791    -1.73161  0.000168877
1360    0.143606    0.607438    -3.04066  -0.000199792
1370    0.148372    0.609623     -1.0784  -0.000176828
1380    0.147143    0.609059    0.231015  0.000227131
1390    0.143829     0.60754    0.136043  0.000760067
1400    0.131942    0.602091   -0.702994  0.000599057
1410    0.131848    0.602048     3.31585  -3.7045e-05
1420    0.132682    0.602431     1.81996  0.000160425
1430     0.12864    0.600578     3.40836  -3.7241e-05
1440    0.133427    0.602772     2.75361  -0.000118314
1450    0.131006    0.601662     1.63239  -3.73907e-05
1460    0.134175    0.603115     2.28505  -4.88199e-05
1470    0.131982     0.60211     2.28596  0.000196139
1480    0.130252    0.601317     2.09812  9.1327e-05
1490    0.130156    0.601273     2.28505  3.30664e-05
1500    0.129591    0.601014     4.24795  0.000115214
1510    0.127852    0.600216     3.59447  0.000209356
1520    0.125404    0.599094     3.68761  0.000209791
1530    0.123656    0.598293     3.03468  0.00033977
1540    0.118608    0.595979     2.84666  0.000375737
1550    0.116141    0.594848     4.71632  0.000211644
1560    0.114376    0.594039     3.22107  0.000247617
1570    0.111189    0.592578     1.07142  0.000177167
1580    0.110832    0.592415     1.35141  5.93722e-05
1590    0.110001    0.592034    0.417032  7.13348e-05
1600    0.109406    0.591761      4.8091  3.18512e-07
1610    0.109995    0.592031     4.62208  1.22812e-05
1620     0.10916    0.591648     5.46294  3.31551e-07
1630    0.109988    0.592028     2.56595  0.000202874
1640    0.105102    0.589788      2.2866  0.000262636
1650    0.104736     0.58962     4.71678  0.000203868
1660    0.101025    0.587919     4.24922  9.65737e-05
1670    0.102804    0.588735     4.71659  -7.0405e-05
1680    0.102433    0.588565     5.27656  -0.00013059
1690    0.105416    0.589932     6.11751  -0.000166693
1700    0.105767    0.590093     5.83744  0.000241077
1710    0.100594    0.587722     5.65042  3.69091e-05
1720    0.105029    0.589755     3.59264  -3.46467e-05
1730    0.101287     0.58804      4.9027  7.32463e-05
1740    0.103564    0.589083     4.34146  0.000339276
1750   0.0945018    0.584929     4.06193  0.000194435
1760   0.0996752    0.587301     4.71577  -0.000372798
1770    0.101958    0.588347     1.63075  0.00015904
1780   0.0964944    0.585843     2.37874  0.000219596
1790   0.0975659    0.586334     4.15407  -7.08539e-05
1800   0.0979115    0.586492     2.37774  3.83005e-05
1810   0.0967998    0.585983     1.81668  0.000318243
1820   0.0915466    0.583575     2.93898  0.000282251
1830   0.0911548    0.583395     3.77994  -9.50132e-05
1840   0.0934469    0.584446     3.59246  6.37021e-05
1850   0.0898808    0.582811     1.72499  -9.54684e-05
1860   0.0953562    0.585321     4.80709  2.82191e-06
1870   0.0898243    0.582785      4.5272  0.000235095
1880   0.0906543    0.583166     4.15425  -2.17281e-05
1890   0.0902589    0.582984     3.12564  -4.64469e-05
1900   0.0915833    0.583591     3.40599  0.000285833
1910   0.0845423    0.580364     3.40699  0.000310669
1920   0.0853699    0.580743     4.15307  -0.000304941
1930   0.0906411     0.58316     3.49859  -4.60245e-05
1940   0.0862904    0.581165      3.6857  0.000188258
1950   0.0868759    0.581434     4.05919  -0.000120532
1960    0.088701     0.58227     5.36669  0.00011481
1970   0.0845797    0.580381     5.46112  0.000164372
1980   0.0854136    0.580763     5.74156  0.000127801
1990   0.0820237    0.579209     5.36697  0.000289643
2000   0.0796207    0.578108     4.61961  0.000228139
2010   0.0774609    0.577118     5.18031  0.000141389
2020   0.0767929    0.576812     4.71285  0.000116833
2030   0.0751243    0.576047     3.77848  0.000179612
2040   0.0732007    0.575165     3.40398  7.98844e-05
2050   0.0735266    0.575314     2.56293  0.000331006
2060   0.0665806     0.57213     1.25534  0.000193264
2070   0.0696613    0.573543     1.53423  -0.000409005
2080   0.0747607     0.57588     2.46888  0.000118718
2090   0.0672869    0.572454     1.16019  5.5211e-05
2100   0.0736565    0.575374     1.25297  -0.000107795
2110   0.0694428    0.573442     1.53414  0.000447169
2120   0.0647131    0.571274     2.00251  0.000233204
2130   0.0647788    0.571305     2.28286  -0.000361231
2140   0.0719377    0.574586     1.72015  -0.000374378
2150   0.0722663    0.574737     2.74922  8.13927e-05
2160   0.0703099     0.57384      2.6548  3.05895e-05
2170   0.0716545    0.574456     3.40288  -0.00045291
2180   0.0793681    0.577992     2.93478  -0.000211443
2190   0.0758834    0.576395     3.77693  0.000246798
2200   0.0744321    0.575729     4.15088  -0.000135849
2210   0.0786004     0.57764     4.61761  -2.06746e-05
2220   0.0748456    0.575919     4.33753  0.000106898
2230   0.0764624     0.57666     4.43013  0.000364118
2240   0.0675632    0.572581     4.43132  0.000544224
2250   0.0655779    0.571671     5.17858  0.000147337
2260   0.0646165     0.57123     4.15069  7.05093e-05
2270   0.0641678    0.571024     6.39339  -0.000264599
2280   0.0699085    0.573656     5.55198  1.9186e-05
2290    0.063784    0.570849     5.74001  0.00039346
2300   0.0620393    0.570049     6.30079  -4.54005e-05
2310    0.064692    0.571265      3.9634  9.73409e-05
2320   0.0600925    0.569156     4.33808  6.24806e-06
2330   0.0645671    0.571207     4.05709  -0.000240088
2340   0.0648942    0.571357      4.4304  0.000331669
2350   0.0579337    0.568167     3.86943  0.000436311
2360    0.056168    0.567357     7.04778  -0.000279897
2370   0.0635316    0.570733     4.80381  -7.09772e-05
2380   0.0575876    0.568008     4.89704  0.000726026
2390   0.0490111    0.564077     7.14065  0.000491951
2400   0.0477485    0.563498      6.8604  8.38693e-06
2410   0.0488434       0.564     6.57986  8.73869e-05
2420   0.0460008    0.562697     5.45847  4.78968e-05
2430   0.0478855    0.563561     5.83224  8.78358e-05
2440   0.0442441    0.561892     6.48663  0.000140466
2450   0.0450761    0.562273     6.57941  0.000180736
2460   0.0406294    0.560235     6.76634  0.000339529
2470   0.0382856     0.55916     3.68278  6.25446e-05
2480   0.0393785    0.559661     6.95245  -2.98811e-05
2490   0.0388832    0.559434     5.08406  0.000102705
2500   0.0373244     0.55872     5.45829  0.000315591
2510   0.0325714    0.556541     6.48663  0.000356154
2520   0.0302013    0.555455     5.27108  0.000117346
2530   0.0302244    0.555465     5.83251  3.77349e-05
2540   0.0294466    0.555109     5.83142  0.000144711
2550   0.0273302    0.554138     5.92502  -6.90918e-05
2560   0.0308284    0.555742      5.6444  -1.91145e-06
2570   0.0273684    0.554156     7.98069  0.000413575
2580   0.0225569     0.55195     5.27081  7.87076e-05
2590   0.0257943    0.553434     6.76561  -0.00013583
2600   0.0252735    0.553196     6.85848  0.000106053
2610   0.0236732    0.552462     7.70035  0.000322157
2620   0.0188304    0.550242     6.48645  1.20994e-05
2630   0.0234313    0.552351     6.48517  -0.000379553
2640   0.0264214    0.553722     7.60538  -0.000177485
2650    0.026981    0.553978      6.9519  -0.00016456
2660   0.0297126    0.555231     9.10081  -0.000151291
2670   0.0300068    0.555365     8.35182  0.000174553
2680   0.0262216     0.55363      5.7359  0.000242839
2690     0.02515    0.553139     6.48343  0.000107314
2700   0.0240753    0.552646     6.48343  0.000189559
2710   0.0213588    0.551401     5.73617  -1.50185e-06
2720   0.0241053     0.55266     6.76333  -0.000138073
2730   0.0241203    0.552667     6.76351  0.000204187
2740   0.0200216    0.550788      5.9221  0.000273136
2750   0.0186576    0.550163     7.41817  6.78174e-05
2760   0.0186652    0.550167     7.41854  -0.000110923
2770    0.020876     0.55118     7.23088  0.000150933
2780   0.0156466    0.548783     8.16543  2.65458e-05
2790   0.0203451    0.550937     7.23097  -0.00031838
2800   0.0220142    0.551702     7.32338  1.28536e-05
2810    0.020088    0.550819      8.0711  0.000165152
2820   0.0187111    0.550188     6.94998  -5.65048e-05
2830   0.0212181    0.551337     4.89321  -4.2481e-05
2840   0.0195608    0.550577     6.76278  0.000416605
2850    0.012886    0.547517     7.51022  0.000291912
2860   0.0137225    0.547901     6.85583  -0.00011167
2870   0.0151194    0.548541     8.53756  5.58611e-05
2880   0.0126053    0.547389     8.07083   0.0003638
2890  0.00784345    0.545206     7.51141  -4.19869e-05
2900    0.013445    0.547774     7.88381  -9.7549e-05
2910  0.00979442      0.5461     9.19259  0.000239016
2920  0.00866472    0.545582     7.32293  0.000169462
2930  0.00640518    0.544547     5.92118  5.70509e-05
2940   0.0075237    0.545059     5.64084  -5.55295e-05
2950  0.00751577    0.545056     6.10793  -2.74949e-05
2960   0.0080736    0.545311     7.60328  -2.75275e-05
2970  0.00806632    0.545308     7.69715  2.91008e-05
2980  0.00749158    0.545045      8.5382  0.000142761
2990  0.00521111    0.543999     9.19304  0.000185703
3000  0.00377752    0.543342      8.4446  -0.000326461
3010   0.0117403    0.546992     6.57448  -1.29186e-05
3020  0.00403589    0.543461     7.41607  0.000514434
3030  0.00145166    0.542276     7.13618  7.28301e-05
3040  0.00257929    0.542793     7.50894  -0.000198869
3050  0.00542904    0.544099     8.63143  -0.00012758
3060  0.00513088    0.543963     8.25776  0.000245355
3070  0.000521943     0.54185     7.32357  0.000432768
3080  -0.00352448    0.539995     9.84689  0.00011708
3090  -0.00181965    0.540776     7.97741  6.01391e-05
3100  -0.00472726    0.539444     9.75319  0.000233385
3110  -0.00648736    0.538637     9.93994  0.000364372
3120  -0.0120147    0.536103     10.0338  0.000249217
3130  -0.0114717    0.536352     12.4642  3.67989e-06
3140  -0.0120883    0.536069     10.5952  -8.36032e-05
3150  -0.00979963    0.537119     12.4623  0.000222021
3160  -0.0165287    0.534034     10.5942  0.000251167
3170   -0.014823    0.534816     10.8741  -9.78285e-05
3180  -0.0145721    0.534931     9.47184  -1.0513e-05
3190  -0.0146127    0.534912     10.3131  -0.000186256
3200   -0.010847    0.536638     9.93884  0.000194708
3210  -0.0185069    0.533127     10.7805  0.00053217
3220  -0.0214904     0.53176     11.1547  -0.000362974
3230  -0.0112474    0.536455     9.47093  -0.00046616
3240  -0.0121672    0.536033     8.53664  -0.000143879
3250  -0.00836981    0.537774     10.0313  -0.000173493
3260  -0.00869736    0.537624     9.18967  9.19512e-05
3270  -0.0102088    0.536931     7.78847  0.000166212
3280  -0.0120216      0.5361     8.16261  0.000329927
3290  -0.0168074    0.533906     8.72357  -1.11046e-05
3300  -0.0117995    0.536202     7.78847  0.000168182
3310   -0.020171    0.532364     8.53683  -5.58806e-05
3320  -0.0106819    0.536714     7.41388  0.000184091
3330  -0.0238528    0.530677     7.78856  0.000511846
3340  -0.0209188    0.532022      7.6946  -8.42404e-05
3350   -0.022168    0.531449     8.44259  -9.98375e-05
3360  -0.0189221    0.532937     9.28354  -0.000144848
3370  -0.0192711    0.532777     8.72285  4.99838e-05
3380  -0.0199217    0.532479     9.84442  4.89568e-06
3390   -0.019369    0.532732     10.7789  -0.00025144
3400  -0.0148929    0.534784     11.3404  -0.000282095
3410  -0.0137271    0.535318     11.0591  3.45296e-05
3420  -0.0155835    0.534467     9.18994   0.0002617
3430  -0.0189611    0.532919     11.1532  -0.000223256
3440  -0.0111184    0.536514     10.7785  -0.000451089
3450  -0.00993928    0.537055     9.93738  -0.000102854
3460  -0.00906131    0.537457     10.0311  0.000171257
3470  -0.0133644    0.535484     9.93766  0.000262993
3480  -0.0143212    0.535046     9.93775  3.46532e-05
3490  -0.0140575    0.535167     9.75073  -0.000118315
3500  -0.0119549    0.536131     8.81636  -0.000425337
3510  -0.00555075    0.539066     9.09607  -0.000165119
3520  -0.0086525    0.537644     9.65649  0.000125993
3530  -0.00807061    0.537911     10.3109  -0.000227801
3540  -0.00409648    0.539733     9.84333  -4.30206e-05
3550  -0.0072102    0.538306     11.4322  0.000110897
3560  -0.00631442    0.538716     10.3108  3.17274e-06
3570  -0.00727365    0.538276     8.81471  3.4042e-05
3580  -0.00699526    0.538404      8.4414  -0.000136591
3590  -0.00454184    0.539529     8.90859  8.09375e-05
3600  -0.00861401    0.537662     10.6848  0.00012741
3610  -0.00709005    0.538361     8.44222  0.000315519
3620  -0.0149244    0.534769     10.6857  -0.000200013
3630  -0.00308979    0.540194     10.8712  -0.000386939
3640  -0.00718562    0.538317     9.46892  0.000190703
3650  -0.00690384    0.538446     9.37587  -9.10019e-05
3660  -0.00536558    0.539151     9.75064  0.000191925
3670  -0.0107423    0.536686     10.4055  0.000302237
3680  -0.0114103     0.53638     9.65722  -0.000106664
3690  -0.00860907    0.537664     9.84351  1.97061e-05
3700  -0.0118044      0.5362     10.3116  -0.000107334
3710  -0.00646239    0.538648     9.84369  -0.000439933
3720  -0.00300579    0.540233     8.81435  0.000177804
3730  -0.0100185    0.537018      8.7212  0.000288857
3740  -0.00878292    0.537585     11.0582  -9.18861e-05
3750  -0.00818074    0.537861     9.28254  -0.000140075
3760  -0.00598141    0.538869     8.44104  5.13816e-05
3770  -0.00920838     0.53739     8.72221  0.000115123
3780  -0.00828386    0.537813     8.90859  -0.00012466
3790  -0.00671517    0.538532     7.69341  0.000228269
3800  -0.0128492    0.535721     8.16114  3.53748e-05
3810  -0.00742267    0.538208     8.62778  -0.000382433
3820  -0.00520057    0.539227     8.06627  1.94721e-05
3830  -0.00781211     0.53803      5.9168  -4.54977e-05
3840  -0.00429062    0.539644      5.0753  -0.000401287
3850  0.00021364    0.541709     6.57055  6.77004e-05
3860  -0.00564463    0.539023     4.98143  0.000310682
3870      -0.006     0.53886     7.31782  0.000198284
3880  -0.0096103    0.537205     5.07585  8.46239e-05
3890  -0.00769248    0.538084     6.19642  6.90267e-05
3900  -0.0109908    0.536573     8.25301  0.000150549
3910  -0.0107035    0.536704     7.87915  -0.000176165
3920  -0.00746753    0.538188     6.29002  0.00013516
3930  -0.0134067    0.535465     6.19624  5.27144e-05
3940  -0.00852181    0.537704     6.84981  -9.43502e-05
3950  -0.0115197     0.53633     5.72869  -4.58748e-05
3960  -0.00760432    0.538125      6.0083  -0.000606794
3970  0.000616215    0.541893     7.22312  -0.000211547
3980  -0.00337338    0.540064     6.56955  0.000200871
3990  -0.00340121    0.540052     7.87788  -8.02029e-05
4000  -0.00176933      0.5408     7.69012  -3.04857e-05
4010  -0.0027915    0.540331     7.87742  -4.74547e-05
4020  -0.000820233    0.541235     6.00739  0.000186132
4030  -0.00651414    0.538625     7.59762  0.000269625
4040  -0.00621273    0.538763     7.13089  -0.000130557
4050   -0.003903    0.539822     5.35446  -4.70256e-05
4060  -0.00527222    0.539194     6.28838  -3.07132e-05
4070  -0.00328873    0.540103     5.16699  0.000137657
4080  -0.00802536    0.537932     5.26104  0.000474469
4090  -0.0127781    0.535753     5.82229  -6.38905e-05
4100  -0.00674755    0.538518     5.07348  -0.000130824
4110  -0.0101616    0.536953     5.07439  7.11007e-05
4120  -0.00816956    0.537866     6.38235  -0.000335245
4130  -0.00345673    0.540026     7.12952  -0.000268195
4140  -0.00280567    0.540325     6.10209  3.68767e-05
4150  -0.00419427    0.539688     4.97996  0.000650563
4160  -0.0158169     0.53436     5.16835  0.000344542
4170  -0.0110851    0.536529     3.95272  -0.000337176
4180  -0.0090734    0.537451     4.70089  -0.000167213
4190  -0.00774085    0.538062     5.16763  -0.000167798
4200  -0.00571745     0.53899     5.07466  -3.07717e-05
4210  -0.00712542    0.538344      5.1679  -4.84169e-05
4220  -0.00474911    0.539434     4.14047  -0.000376068
4230  0.000395943    0.541792     3.29824  -0.000152441
4240  -0.00170028    0.540831     4.88682  -6.70373e-05
4250  0.00173669    0.542407     6.38207  0.000106664
4260  -0.00383356    0.539853     6.10218  0.000262603
4270  -0.00351538    0.539999      4.9806  -0.000466985
4280  0.00550615    0.544135     4.98006  -4.93791e-05
4290  -0.00252779    0.540452     5.82174  0.000228405
4300  0.000938041    0.542041     3.57868  -0.00010223
4310  -0.000483194    0.541389     4.04532  -1.53891e-05
4320  0.00124582    0.542182     4.60665  -0.000541922
4330   0.0103552    0.546357     4.60638  -0.000437631
4340  0.00999844    0.546194     3.95217  0.000123854
4350  0.00787816    0.545222     4.98115  -0.000193616
4360   0.0138708    0.547969     4.23179  7.16664e-05
4370  0.00644484    0.544565     5.44752  0.000141603
4380   0.0110387    0.546671     3.67155  -0.000229511
4390    0.011035    0.546669      3.7647  0.000373714
4400   0.0035644    0.543244     3.76552  0.000160672
4410   0.0078216    0.545196      3.7646  -1.61108e-05
4420  0.00388661    0.543392     6.00876  5.45933e-05
4430  0.00672973    0.544695     5.07366  -0.000392283
4440   0.0117323    0.546989     5.63481  -0.000626695
4450   0.0192636    0.550441     5.91297  1.82368e-05
4460   0.0113675    0.546821     6.10036  0.00061102
4470  0.00704324    0.544839     5.91443  0.000559444
4480  0.000178662    0.541692     5.72768  -1.69625e-05
4490  0.00738249    0.544995     6.56809  -8.81412e-05
4500  0.00194149    0.542501     7.22285  7.35778e-05
4510  0.00591093     0.54432     7.22303  -0.00036131
4520  0.00916768    0.545813     6.47476  -0.000198888
4530   0.0098887    0.546143     6.38143  -1.75216e-05
4540  0.00951811    0.545974     6.94113  0.000384227
4550  0.00220415    0.542621     7.68939  0.000366725
4560   0.0021836    0.542612     8.34424  0.000130369
4570  -0.000403225    0.541426     7.12924  0.000314297
4580  -0.00410234     0.53973     6.94213  -8.95066e-05
4590  0.00138691    0.542246     6.84753  2.16176e-05
4600  -0.00453469    0.539532      7.8766  0.000667161
4610  -0.0119563     0.53613     8.34424  -0.000126247
4620  -0.00200975    0.540689     7.78245  -0.000273428
4630  -0.00648775    0.538637     7.31471  0.000170015
4640  -0.00541005    0.539131     8.25046  -8.93765e-05
4650  -0.00470022    0.539456     6.94122  -7.11137e-05
4660  -0.00398778    0.539783     7.03455  0.000246174
4670  -0.00962369    0.537199      9.2788  9.68078e-05
4680  -0.00592393    0.538895     8.15631  -0.000201944
4690  -0.00558481    0.539051     8.90384  2.23718e-05
4700  -0.00637137     0.53869     8.81079  -0.000278773
4710  -9.3622e-06    0.541606     9.27697  -0.000184845
4720  -0.00267447    0.540385     9.93127  0.000361453
4730  -0.00723841    0.538293     8.06252  0.000192289
4740  -0.00652025    0.538622     8.90411  -0.000109882
4750  -0.00504077      0.5393      9.5586  -0.00011024
4760  -0.00431546    0.539632     9.27779  -9.17171e-05
4770  -0.00320642    0.540141     9.83895  6.05617e-05
4780  -0.00552669    0.539077     9.55814  -0.000264378
4790  0.00208114    0.542565     8.62331  -0.000207022
4800  -0.00138626    0.540975     9.18328  0.000385794
4810  -0.00563475    0.539028     8.53026  9.89273e-05
4820  -0.0033648    0.540068     10.0256  -0.000381523
4830  0.00199571    0.542525     10.6785  -0.000363396
4840  0.00390313      0.5434     8.99626  -0.000133145
4850  0.00465861    0.543746     9.55695  0.000214856
4860  -0.000393993     0.54143     9.65119  0.000215142
4870  0.000355764    0.541774     10.5856  -1.67935e-05
4880  -5.81237e-05    0.541584     11.1452  8.04564e-05
4890  -0.00125336    0.541036     10.3049  -9.50199e-05
4900  0.00184227    0.542455     10.1175  -3.6311e-05
4910  -0.000527144    0.541369     10.5858  0.000296203
4920  -0.00408179     0.53974     10.4922  4.19804e-05
4930  -0.00136675    0.540984     12.4542  -0.000173675
4940  -0.000608283    0.541332     10.4913  -9.5696e-05
4950  0.000547169    0.541861      11.426  6.20116e-05
4960  -0.00184851    0.540763     9.36939  -3.70977e-05
4970  0.00128912    0.542202     10.1169  0.000379787
4980  -0.00944425    0.537281      9.7437  0.000538944
4990  -0.00948976    0.537261     10.4906  0.000698102
