Time   Number   
ps   
0          11          13
10          11          13
20           9           9
30           9          13
40          13          15
50          11          13
60          11          13
70          12          16
80          11          13
90          12          14
100           9          15
110          10          14
120          12          16
130           9          13
140          12          16
150          11          13
160          12          16
170          11          11
180          12          12
190           9          15
200          12          16
210          10          14
220          11          13
230          10          14
240          12          12
250          11          13
260          10          14
270          13          17
280          11          17
290          11          13
300          14          16
310           9          15
320          10          14
330          11          13
340           8          12
350           8          12
360          13          13
370           7          13
380           6          14
390           9          13
400          11          15
410          11          15
420          14          14
430          13          15
440          12          16
450          13          17
460          10          12
470          11          17
480          11          17
490          13          21
500          10          10
510          11          19
520          12          14
530          10          16
540          12          16
550          11          15
560          11          13
570          13          15
580          13          13
590          11          19
600          13          17
610          11          15
620          14          16
630          11          15
640          13          15
650          14          16
660          11          15
670          13          17
680          13          13
690          12          18
700          12          16
710          14          16
720          15          15
730          15          17
740          10          18
750          13          15
760          12          14
770          13          13
780          12          16
790          12          16
800          11          13
810          12          14
820          11          15
830          11          15
840          10          12
850           9          11
860          12          12
870           9          11
880          10          12
890          10          16
900          13          17
910          11          17
920          11          15
930          11          15
940          11          17
950           9          13
960          10          14
970          12          16
980          12          14
990          10          14
1000          10          12
1010          10          14
1020          11          13
1030           9          11
1040          12          12
1050          11          15
1060          10          14
1070          13          13
1080          14          14
1090          12          14
1100          11          15
1110          12          14
1120          12          12
1130          13          13
1140          13          13
1150          11          15
1160          14          16
1170          12          12
1180          12          14
1190          11          13
1200          10          16
1210          12          12
1220          13          15
1230          13          13
1240          13          13
1250          13          13
1260          13          13
1270          13          13
1280          14          16
1290          13          15
1300          12          14
1310          14          16
1320          13          13
1330          14          14
1340          11          13
1350          12          12
1360          11          13
1370          11          13
1380          11          13
1390          12          12
1400           9          15
1410          11          13
1420          10          14
1430          10          12
1440          11          13
1450          10          14
1460          11          13
1470          12          14
1480          11          11
1490          10          14
1500          12          12
1510          12          14
1520          13          13
1530          11          11
1540          11          13
1550          13          13
1560          13          17
1570          12          14
1580          11          15
1590          13          15
1600          12          14
1610          11          13
1620          11          13
1630          14          14
1640          12          12
1650          12          12
1660          11          15
1670          11          11
1680          10          12
1690          11          11
1700          11          11
1710           9          11
1720          10          12
1730          10          14
1740          12          12
1750          11          13
1760           9          13
1770          10          12
1780          12          14
1790          11          15
1800          14          16
1810          11          15
1820           8          12
1830          12          20
1840          12          20
1850          11          17
1860          10          16
1870          12          16
1880          10          10
1890          10          12
1900          12          16
1910          13          17
1920          12          14
1930          12          18
1940          12          18
1950          14          18
1960          11          15
1970          13          17
1980          12          18
1990          14          16
2000          15          17
2010          14          16
2020          14          16
2030          14          20
2040          15          15
2050          13          13
2060          14          16
2070          10          20
2080          14          16
2090          11          17
2100          11          11
2110          11          17
2120          11          17
2130          12          14
2140          10          16
2150          11          13
2160          10          16
2170           9          15
2180           9          13
2190           9          13
2200           7          13
2210           7          13
2220          12          16
2230          10          12
2240           8          12
2250          11          15
2260           9          13
2270           9          15
2280           9          13
2290           8          12
2300           9          15
2310           8          14
2320           8          14
2330           8          12
2340          11          13
2350           9          13
2360          10          12
2370           9          11
2380           7          15
2390           7          17
2400          10          12
2410           9          11
2420           8          16
2430           7          13
2440           7          11
2450           8          16
2460           9          11
2470           7          11
2480          10          14
2490           8          12
2500           8          10
2510          11          11
2520          11          13
2530           9          11
2540           8          10
2550           9          15
2560           7           9
2570           9          11
2580          10          10
2590           8          10
2600           8          10
2610           9          11
2620           8          12
2630           8          12
2640           8          12
2650           9          11
2660           9          13
2670          10          14
2680           9          13
2690           9          13
2700          11          13
2710           8          14
2720          10          12
2730           9          13
2740           8          14
2750           7          11
2760           8          10
2770           9          13
2780           9          13
2790           8          12
2800           7          11
2810          10          10
2820           9          11
2830          11          11
2840          11          13
2850          12          12
2860          10          14
2870          10          12
2880          10          14
2890           9          13
2900          11          11
2910          12          14
2920          10          10
2930          10          14
2940          10          16
2950          11          13
2960          10          14
2970          10          12
2980          10          14
2990           9          11
3000          11          13
3010          11          13
3020          11          13
3030           9          15
3040          12          14
3050          11          13
3060          10          10
3070           8          12
3080           8          14
3090          12          12
3100          10          14
3110           8          14
3120          11          13
3130           8          10
3140          10          12
3150          11          15
3160          10          10
3170           9           9
3180           9          11
3190           7           9
3200           9           9
3210           8           8
3220           8          12
3230           7           9
3240           7          11
3250           9          11
3260          10          12
3270           9           9
3280           9          11
3290          11          11
3300           9          11
3310           8          10
3320           9          15
3330           8          16
3340           9          15
3350           9          11
3360           7          17
3370          10          12
3380           8          10
3390          10          10
3400          10          12
3410          12          18
3420          10          12
3430          11          11
3440          12          14
3450          10          12
3460          13          15
3470          13          15
3480          11          17
3490          11          15
3500          13          13
3510          12          14
3520          12          14
3530           8           8
3540          10          14
3550          10          14
3560          10          12
3570          11          11
3580          10          12
3590          10          12
3600          11          15
3610          10          12
3620          10          12
3630          11          13
3640          10          14
3650          13          13
3660          11          11
3670          11          15
3680          10          14
3690          10          10
3700          11          15
3710          11          11
3720          14          14
3730          13          15
3740          13          13
3750          12          14
3760          13          17
3770          12          12
3780          12          16
3790           7          13
3800           7          11
3810          11          15
3820          11          11
3830          10          12
3840          12          14
3850          13          13
3860          12          12
3870          12          14
3880          13          15
3890          13          17
3900          16          16
3910          10          14
3920          11          11
3930          10          12
3940          12          18
3950           8          10
3960          15          15
3970          13          15
3980          13          13
3990          11          13
4000          12          12
4010          14          14
4020          12          12
4030          11          11
4040          12          12
4050          12          12
4060          10          10
4070          11          11
4080           9          11
4090          11          11
4100           9          11
4110           8           8
4120          10          12
4130           9          13
4140          12          12
4150           9          13
4160           9          11
4170           8          10
4180          10          12
4190          11          11
4200           8          10
4210           8          10
4220           9          11
4230           6          12
4240          11          11
4250          10          14
4260           8          12
4270           9          11
4280           8          10
4290           9          11
4300           8          10
4310           6          12
4320           9           9
4330           8          10
4340           9          11
4350           9          13
4360           8          14
4370           9          11
4380           7          13
4390          10          12
4400          10          12
4410           9          17
4420           9          13
4430           9          13
4440           9          11
4450           9          13
4460          10          12
4470          11          15
4480          10          14
4490           9          11
4500          12          14
4510          10          18
4520          10          14
4530          10          14
4540          11          15
4550           9          13
4560          13          13
4570          10          14
4580          10          14
4590          10          14
4600          11          13
4610          10          14
4620          11          15
4630          12          16
4640          11          13
4650          11          15
4660          10          12
4670          10          16
4680          11          17
4690          10          12
4700           9          11
4710          10          12
4720           9          13
4730           8          14
4740          11          19
4750          12          18
4760          11          15
4770          10          14
4780          13          15
4790          10          18
4800          10          14
4810          12          20
4820          10          12
4830          10          14
4840          11          15
4850           8          12
4860          11          15
4870          11          15
4880          11          15
4890          12          14
4900           9          13
4910          11          13
4920           7          13
4930          11          17
4940           9          13
4950           9          11
4960          10          12
4970          10          14
4980          13          13
4990          10          10
5000          10          12
5010          10          14
5020           9          15
5030          11          17
5040          12          14
5050          10          16
5060          12          14
5070           9          17
5080          10          12
5090          11          15
5100           9          17
5110          12          14
5120          13          15
5130          10          16
5140          11          13
5150          10          12
5160          12          12
5170          11          17
5180          12          14
5190          11          13
5200          13          15
5210           8          14
5220           8          10
5230          10          18
5240           9          13
5250          11          13
5260          10          14
5270          12          16
5280           9          21
5290          10          12
5300          11          15
5310           9          13
5320          10          14
5330          10          14
5340          10          18
5350          11          17
5360          12          18
5370          11          13
5380          10          12
5390          11          13
5400           9          11
5410           9          13
5420          11          13
5430          10          10
5440          10          12
5450           9           9
5460          11          15
5470           8          14
5480          12          12
5490          12          18
5500          11          13
5510          10          14
5520          12          14
5530          12          14
5540          13          15
5550          12          14
5560          13          19
5570          12          12
5580          13          15
5590          11          13
5600          13          15
5610          11          15
5620          10          16
5630          11          17
5640          10          12
5650          13          13
5660          14          16
5670          12          14
5680          12          12
5690          13          15
5700          12          12
5710          13          13
5720          14          22
5730          14          14
5740          15          19
5750          16          16
5760          15          17
5770          12          18
5780          12          18
5790          14          16
5800          15          21
5810          12          16
5820          10          14
5830          10          12
5840          14          16
5850          10          10
5860          10          12
5870          11          11
5880          11          11
5890          10          14
5900          11          11
5910          12          18
5920          12          12
5930          14          14
5940          12          16
5950          14          16
5960          13          15
5970          12          14
5980          13          19
5990          14          20
6000          12          14
6010          12          16
6020          11          11
6030          14          14
6040          11          13
6050          12          14
6060          13          15
6070          11          13
6080          11          15
6090          11          11
6100          14          20
6110          13          15
6120          12          16
6130          11          13
6140          13          17
6150          12          12
6160          12          16
6170          15          15
6180          11          15
6190          12          20
6200          10          18
6210          14          16
6220          11          13
6230          12          16
6240          13          15
6250          14          18
6260          15          17
6270          13          21
6280           8          14
6290          11          13
6300          11          13
6310          10          12
6320           8          16
6330          13          15
6340          12          14
6350          10          16
6360          11          15
6370          12          16
6380          12          16
6390          13          19
6400          14          18
6410          12          16
6420          14          14
6430          11          15
6440          14          18
6450          15          17
6460          13          19
6470          13          19
6480          16          18
6490          16          16
6500          11          17
6510          11          17
6520          13          19
6530          12          14
6540          12          18
6550          13          17
6560          10          14
6570           9           9
6580           9          11
6590           9          13
6600          13          15
6610          12          12
6620          10          12
6630          13          13
6640          12          12
6650          11          15
6660          12          16
6670          12          14
6680          12          14
6690          11          15
6700          11          15
6710          11          11
6720          15          15
6730          10          10
6740          12          14
6750          13          13
6760          14          16
6770          10          16
6780          12          16
6790          12          14
6800          13          17
6810          11          11
6820          11          11
6830          10          14
6840          11          13
6850          10          14
6860          12          14
6870          12          14
6880          13          13
6890          13          13
6900          11          15
6910          13          15
6920          13          15
6930           9          15
6940          13          13
6950          10          10
6960          12          16
6970          12          14
6980          13          13
6990          14          14
7000          14          14
7010          10          14
7020          13          13
7030          12          14
7040          13          13
7050          11          11
7060          12          16
7070          12          16
7080          13          17
7090          14          14
7100          11          17
7110          13          13
7120          12          12
7130          12          14
7140          13          17
7150          13          13
7160          13          13
7170          13          13
7180          10          12
7190          11          13
7200          12          14
7210          12          14
7220          14          16
7230          14          16
7240          12          16
7250          11          13
7260          11          11
7270          11          11
7280          11          13
7290          10          14
7300          12          14
7310          14          14
7320          13          15
7330          13          13
7340          11          15
7350          10          14
7360          12          12
7370          11          13
7380          10          16
7390          10          16
7400          12          14
7410          12          14
7420           9          15
7430          12          12
7440          10          10
7450          10          12
7460          11          11
7470           9          11
7480          10          10
7490          10          12
7500          11          11
7510          10          10
7520           8          12
7530          13          13
7540           8          12
7550          12          12
7560           8          10
7570           8          14
7580          11          11
7590          11          11
7600          12          12
7610          12          14
7620          11          11
7630          10          10
7640          11          11
7650           9           9
7660          12          12
7670          11          11
7680          11          11
7690          11          13
7700          12          12
7710          12          12
7720          10          14
7730          10          12
7740          12          16
7750          11          15
7760          13          15
7770          13          13
7780          10          12
7790          11          13
7800          13          13
7810          10          10
7820          11          13
7830          11          11
7840           9          13
7850           9          11
7860          10          14
7870          11          11
7880           8          12
7890          13          13
7900          14          14
7910          12          14
7920          11          15
7930          14          16
7940          12          16
7950          12          14
7960          14          14
7970          13          13
7980          11          13
7990          12          14
8000          13          15
8010          13          13
8020          14          18
8030          11          17
8040          13          17
8050          11          15
8060          13          15
8070          12          14
8080          12          14
8090          10          18
8100          12          12
8110          11          15
8120          13          13
8130          11          15
8140          11          13
8150          11          13
8160          12          12
8170          11          13
8180          10          12
8190          11          13
8200          10          14
8210          11          13
8220           9          17
8230          12          18
8240          12          14
8250          10          18
8260          11          15
8270          11          15
8280          11          13
8290          14          14
8300          10          18
8310          12          16
8320          11          11
8330          11          11
8340          13          13
8350          12          14
8360          10          16
8370          12          16
8380          12          16
8390          13          13
8400          12          12
8410          11          15
8420          11          17
8430          11          15
8440          12          16
8450          11          13
8460          10          16
8470          13          13
8480          12          14
8490          10          12
8500           9          13
8510           9          13
8520          13          15
8530          12          14
8540          11          13
8550          11          13
8560          11          15
8570           9          15
8580          10          16
8590           9          13
8600           9          13
8610          10          12
8620          11          13
8630           8          12
8640          10          14
8650           9           9
8660           9          11
8670           8          12
8680           9          11
8690          11          13
8700           9          13
8710           9          13
8720           9          11
8730          12          12
8740          12          12
8750          11          13
8760          13          17
8770          11          15
8780          12          14
8790          13          17
8800          15          15
8810          12          14
8820          12          14
8830          14          14
8840          11          15
8850           9          11
8860           8          10
8870          11          11
8880          10          16
8890          12          12
8900          11          11
8910          12          14
8920          11          13
8930          12          12
8940          15          15
8950          15          15
8960          13          15
8970          13          13
8980          12          14
8990          10          16
9000           8          14
9010          12          14
9020          11          15
9030          11          13
9040          12          14
9050          11          13
9060          12          12
9070           7          11
9080           9          13
9090          10          10
9100           8          10
9110           9          11
9120           8          10
9130          11          11
9140          12          12
9150          11          11
9160          10          14
9170           8           8
9180           9           9
9190          10          10
9200           9           9
9210          10          12
9220          10          14
9230          10          14
9240          12          14
9250          12          16
9260          10          12
9270          10          16
9280           8          14
9290           9          13
9300           8          10
9310          10          12
9320          12          12
9330          10          12
9340           7          11
9350          10          12
9360           9          11
9370          11          13
9380           9          17
9390          10          14
9400          12          16
9410          10          14
9420          12          14
9430          12          14
9440          12          14
9450          12          14
9460           9          13
9470          11          13
9480           8          12
9490           7          13
9500          11          13
9510          14          16
9520          10          12
9530          10          14
9540          10          14
9550          13          13
9560          10          18
9570          12          12
9580          12          12
9590           9          17
9600          11          13
9610          12          16
9620          11          15
9630          13          13
9640          11          17
9650          14          14
9660          15          15
9670          14          16
9680          11          13
9690          12          16
9700          11          15
9710          12          14
9720          13          17
9730          13          15
9740          12          12
9750          11          13
9760          10          12
9770          10          10
9780           9          13
9790          12          14
9800          12          14
9810          13          17
9820          11          15
9830          10          12
9840          15          15
9850          11          17
9860          14          14
9870          11          15
9880          12          12
9890          11          15
9900           8          12
9910          10          12
9920          11          13
9930          12          14
9940           9          13
9950          10          12
9960          12          12
9970          11          11
9980          10          16
9990          11          13
10000           9          13
