Time   C(t)   
ps   
0           1           1     1.5e-09   0.0457288
10    0.554251    0.843748    0.209192   0.0237707
20    0.524587     0.83335   -0.464934  0.00181251
30    0.518001    0.831041   -0.536122   0.0013683
40    0.497221    0.823757   -0.837657  0.00138456
50    0.490309    0.821334   0.0397692  0.00088599
60    0.479501    0.817545     0.30934  0.00109616
70    0.468386    0.813649    0.444125  0.000661761
80    0.466266    0.812906    0.408828  0.000863111
90    0.451124    0.807598  -0.0278217  0.000697809
100     0.45231    0.808014     0.10406  0.000428674
110    0.442551    0.804593    -1.48361  0.000733893
120    0.437632    0.802869    0.543812  0.000430426
130    0.433942    0.801575  -0.0314191  0.00056024
140    0.426427    0.798941   -0.471469  0.00064241
150    0.421094    0.797072   -0.572376  0.000146283
160    0.423501    0.797915    0.879752  0.000386454
170    0.413365    0.794362   -0.911551  0.000674267
180    0.410016    0.793188    -1.08048  0.000354469
190    0.406275    0.791877    0.102145  0.000148605
200    0.407044    0.792147   0.0328711  0.00047608
210    0.396754    0.788539    -1.55401  0.000582413
220    0.395396    0.788063   -0.641914  0.00016004
230    0.393553    0.787417    -1.42074  0.000661948
240    0.382157    0.783423    -1.08127  0.000585584
250    0.381841    0.783312    -1.21688  0.000365011
260    0.374856    0.780864    -1.25043  0.00067987
270    0.368244    0.778546   -0.506139  4.6888e-05
280    0.373919    0.780535     0.57198  -0.00017053
290    0.371655    0.779741    0.673977  0.000508115
300    0.363756    0.776973   -0.271535  0.000406884
310    0.363517    0.776889   -0.881303  0.000378929
320    0.356178    0.774316   -0.169637  8.23483e-05
330     0.36187    0.776311   -0.171749  -5.32299e-05
340    0.357242    0.774689    -1.18495   0.0004876
350    0.352118    0.772893   -0.272789  0.000303024
360    0.351182    0.772565    0.065033  0.000108357
370    0.349951    0.772133    0.502442  0.000245552
380    0.346271    0.770843    0.435512  0.000182264
390    0.346306    0.770855   -0.713564  0.000256443
400    0.341142    0.769045    0.131469  0.00033029
410      0.3397     0.76854    0.165413  0.000321311
420    0.334716    0.766793   0.0641421  0.000346427
430    0.332771    0.766111    0.164785  0.000224221
440    0.330231    0.765221     1.07711  0.00017536
450    0.329264    0.764882   -0.275132  2.77668e-05
460    0.329676    0.765026    0.974455  8.2247e-05
470    0.327619    0.764305    0.264142  0.000349309
480     0.32269    0.762577     1.17686   0.0003598
490    0.320423    0.761783    0.872657  0.000172384
500    0.319242    0.761369     1.04129  0.000376149
510      0.3129    0.759146     2.09084  0.000252575
520    0.314191    0.759598     0.73764  -0.000109369
530    0.315087    0.759912    0.296964  0.000293443
540    0.308322    0.757541    0.568382  0.000557698
550    0.303933    0.756002     1.58244  0.000224833
560    0.303825    0.755964   -0.615132  -6.89924e-05
570    0.305313    0.756486   -0.750973  0.000125879
580    0.301308    0.755082     1.85182  3.58179e-05
590    0.304597    0.756235    0.702146  0.000211552
600    0.297077    0.753599    0.770825  0.000311713
610    0.298363     0.75405    0.364587  -0.00012383
620    0.299553    0.754467    0.161056  9.69738e-05
630    0.296423     0.75337      1.7831  0.000212657
640      0.2953    0.752976     1.03964  0.000339063
650    0.289642    0.750993    0.837888  2.70709e-05
660    0.294759    0.752786     1.07183  -0.000103493
670    0.291712    0.751718     1.20777  0.000466625
680    0.285426    0.749515    0.668367  0.000356238
690    0.284587    0.749221    0.532492  -0.00017428
700    0.288912    0.750737  -0.0766499  0.00039317
710    0.276724    0.746464   0.0268651   0.0005099
720    0.278714    0.747162   -0.919702  -0.000183998
730    0.280404    0.747754     0.83703  -0.000255609
740    0.283826    0.748954    -0.85462  0.000329193
750     0.27382    0.745446     0.29693  0.000359739
760    0.276631    0.746432   -0.481996  -7.22662e-05
770    0.275265    0.745953     0.16033  0.000249004
780    0.271651    0.744686   -0.143614  -6.17206e-06
790    0.275389    0.745996    0.227327  -0.000138828
800    0.274428    0.745659     0.69967  0.000178251
810    0.271824    0.744747    0.835115  0.000122139
820    0.271985    0.744803    0.935858  0.000204648
830    0.267731    0.743312    0.969736  0.00017405
840    0.268504    0.743583    0.800577  1.0033e-05
850     0.26753    0.743242     1.20513  0.000221135
860    0.264081    0.742033  -0.0782341  0.000350456
870    0.260521    0.740785  -0.0100165  0.000278871
880    0.258504    0.740078     1.03776  0.000243384
890    0.255653    0.739078     1.20629  4.73797e-05
900    0.257556    0.739745     0.79939  4.77046e-05
910    0.254699    0.738744     1.07025  0.000213458
920    0.253287    0.738249     1.77993  1.67653e-05
930    0.254364    0.738626     1.47467  0.000240399
940    0.248479    0.736564     1.07051  0.000505836
950    0.244247     0.73508     1.17218  0.000163305
960    0.245213    0.735419     1.34051  2.84217e-05
970    0.243679    0.734881    0.731666  1.26846e-05
980    0.244959     0.73533     2.28612  2.85499e-05
990    0.243108    0.734681    0.934076  0.00026383
1000    0.239682     0.73348    0.731304  0.000458073
1010    0.233946    0.731469    0.901023  9.72189e-05
1020    0.237738    0.732798      1.0015  -9.09194e-05
1030    0.235764    0.732107    0.595627  3.99426e-05
1040    0.236939    0.732518     1.84564  0.000140095
1050    0.232963    0.731124     2.38683  0.000266474
1060     0.23161     0.73065     2.48804  -0.000201946
1070    0.237002     0.73254     3.66967  8.82491e-05
1080    0.229845    0.730032     2.08213  0.000484021
1090    0.227321    0.729147     2.48754  0.000152167
1100    0.226801    0.728965     3.63678  4.66071e-05
1110    0.226389     0.72882     1.70987  0.000120965
1120    0.224382    0.728117     2.79231  0.000206137
1130    0.222266    0.727375     2.25112  4.66779e-06
1140    0.224289    0.728084     3.29794  0.000207055
1150    0.218125    0.725923     4.04213  0.000382764
1160    0.216634    0.725401      3.6695  3.73572e-05
1170    0.217378    0.725661     3.83804  -7.45282e-05
1180    0.218124    0.725923     4.20907  0.000107013
1190    0.215238    0.724911     3.33056  0.000502887
1200    0.208066    0.722397     5.66388  0.000385951
1210    0.207519    0.722205     3.50061  3.33786e-05
1220    0.207399    0.722163     4.27601  -5.24305e-05
1230    0.208567    0.722573     5.05338  3.88876e-05
1240    0.206621    0.721891      3.8029  0.000302446
1250    0.202518    0.720453      5.0869  0.000200653
1260    0.202608    0.720484     3.66743  2.87876e-05
1270    0.201943    0.720251     3.46455  -4.13448e-05
1280    0.203435    0.720774     4.17351  0.000239719
1290    0.197148     0.71857     4.10678  0.000440007
1300    0.194635    0.717689     2.51881  0.000181226
1310    0.193524      0.7173     4.27531  0.000127529
1320    0.192084    0.716795     2.78832  0.000176653
1330    0.189991    0.716061     2.38304  0.000155236
1340    0.188979    0.715707     3.87066  -0.000116425
1350    0.192319    0.716877     3.36229  0.000106946
1360    0.186841    0.714957     3.39706  0.000248501
1370    0.187349    0.715135     2.38221  -2.36608e-05
1380    0.187314    0.715123     3.39538  7.4698e-05
1390    0.185855    0.714612     2.92241  0.000118627
1400    0.184941    0.714291     2.61777  0.00020657
1410    0.181724    0.713163     2.85472  8.07166e-05
1420    0.183327    0.713725     1.40061  -0.000193444
1430    0.185593     0.71452     1.23119  0.000218584
1440    0.178955    0.712193      2.4153  0.000202073
1450    0.181551    0.713103     3.29318  1.56865e-05
1460    0.178641    0.712083     3.29295  -2.87957e-05
1470    0.182127    0.713305     2.71743  0.000308593
1480     0.17247    0.709919     2.75292  0.000485568
1490    0.172416      0.7099     1.90832  -0.000293664
1500    0.178343    0.711978     2.98789  -0.000310633
1510    0.178628    0.712078     1.87259  0.00010465
1520     0.17625    0.711245  -0.0196867  -0.000123125
1530    0.181091    0.712941     2.07408  8.84622e-05
1540    0.174481    0.710624     1.87173  0.000299709
1550    0.175097     0.71084     1.43221  5.54405e-05
1560    0.173372    0.710236     2.14206  4.42445e-05
1570    0.174212     0.71053     2.34477  7.24532e-05
1580    0.171923    0.709728     2.14137  0.000201172
1590    0.170188     0.70912      2.0404  -1.1231e-05
1600    0.172147    0.709806     2.24178  0.000325596
1610    0.163676    0.706837     2.27744  0.000477398
1620    0.162599     0.70646     3.32409  -9.46768e-05
1630     0.16557    0.707501     2.88437  -8.34204e-05
1640    0.164268    0.707044     3.32287  0.000282586
1650    0.159918     0.70552     2.37825  9.11742e-05
1660    0.162444    0.706405     2.64749  1.83471e-05
1670    0.159551    0.705391     4.03322  9.16243e-05
1680    0.160612    0.705763     2.84993  6.94178e-05
1690    0.158163    0.704904     3.45865  0.000273532
1700    0.155141    0.703845      4.6417  -2.67811e-05
1710    0.158699    0.705092      3.1198  -6.6264e-05
1720    0.156467     0.70431     3.32241  1.86361e-05
1730    0.158326    0.704961     2.95058  7.02173e-05
1740    0.155062    0.703817     4.94508  9.28491e-05
1750    0.156469    0.704311     4.06544  9.91233e-05
1760     0.15308    0.703122     3.96553  -7.2512e-05
1770    0.157919    0.704819     4.16569  -0.000106588
1780    0.155211     0.70387      3.7619  1.30929e-05
1790    0.157657    0.704727     2.44231  0.000220131
1800    0.150809    0.702326     2.88276  0.000225843
1810     0.15314    0.703144     3.35606  -5.50158e-05
1820    0.151909    0.702712     3.32175  0.000111774
1830    0.150905     0.70236     3.45742  2.54802e-05
1840      0.1514    0.702534      2.5451  -0.000176584
1850    0.154437    0.703598     2.81391  2.55987e-05
1860    0.150888    0.702354     2.30776  0.000407453
1870    0.146288    0.700742     2.27437  0.000269221
1880    0.145503    0.700467     2.84851  0.000212071
1890    0.142046    0.699255     3.08596  -9.56118e-05
1900    0.147415    0.701137     3.62553  -0.000438612
1910    0.150818     0.70233      4.2668  0.000125352
1920    0.144908    0.700258     3.99822  0.000218388
1930    0.146451    0.700799      3.6251  -4.92766e-05
1940    0.145894    0.700604     1.76709  -2.02857e-05
1950    0.146856    0.700941    0.448432  0.000114444
1960    0.143605    0.699801      2.6119  -2.80514e-06
1970    0.146912    0.700961     2.61101  -2.00137e-05
1980    0.144005    0.699942    0.989521  0.000385084
1990    0.139211    0.698261    0.585033  -0.00016134
2000    0.147232    0.701073    0.549142  -0.000178582
2010    0.142782    0.699513     1.52965  0.000256697
2020    0.142098    0.699273      1.1245  -6.73004e-05
2030    0.144128    0.699985     2.10327  0.000110151
2040    0.139895    0.698501     2.61074  0.000370572
2050    0.136717    0.697387     2.61068  0.000110703
2060    0.137681    0.697725     2.00206  2.21983e-05
2070    0.136273    0.697231    0.853547  0.000224204
2080    0.133197    0.696153    0.954488  0.000272247
2090    0.130828    0.695322      1.0229  0.000213388
2100    0.128929    0.694657     1.39381  8.27573e-05
2110    0.129173    0.694742     3.31974  4.72195e-05
2120    0.127985    0.694326      1.7318  0.000142934
2130    0.126314     0.69374     1.79955  0.000227128
2140    0.123442    0.692733    0.954554  8.36838e-05
2150    0.124641    0.693154    0.886436  -0.000125964
2160    0.125962    0.693617     1.29096  7.2113e-05
2170    0.123198    0.692648    0.986948  0.000264681
2180    0.120668    0.691761   0.0755766  0.000108688
2190    0.121025    0.691886    0.818944  4.27391e-05
2200    0.119813    0.691461   -0.567476  0.000423419
2210    0.112556    0.688917   -0.498762  7.92291e-05
2220    0.118229    0.690906    0.311007  -0.000174178
2230     0.11604    0.690139     0.54802  -0.000156919
2240    0.121367    0.692006   -0.568234  -5.96751e-05
2250    0.117233    0.690557    0.176286  0.000261934
2260    0.116128     0.69017   -0.804059  0.000116654
2270      0.1149    0.689739   -0.398713  0.000202286
2280    0.112083    0.688751   -0.263037  0.000221058
2290    0.110479    0.688189    0.142409  0.000172758
2300    0.108627     0.68754    0.345545  -4.3273e-06
2310    0.110566     0.68822  -0.0946375  -0.000169545
2320    0.112018    0.688729    -0.60198  0.000161357
2330    0.107338    0.687088  -0.0945719  5.07563e-05
2340    0.111003    0.688373   -0.568531  6.99364e-05
2350     0.10594    0.686598    -0.70302  -0.000170761
2360    0.114418     0.68957  -0.0290591  -0.000102448
2370    0.107989    0.687316   -0.500677  0.000273149
2380    0.108955    0.687655    0.580709  6.40109e-05
2390    0.106708    0.686868    -1.04157  0.000224986
2400    0.104456    0.686078   -0.940033  9.53741e-05
2410    0.104801    0.686199  -0.0615188  0.000282135
2420    0.098813      0.6841    0.378433  0.000357028
2430   0.0976603    0.683696    0.749901  0.000127894
2440   0.0962551    0.683203    0.986122  -0.00036428
2450    0.104946     0.68625    0.578498  -0.000395848
2460    0.104172    0.685979   -0.164143  9.00861e-05
2470    0.103144    0.685618    0.105792  0.000403338
2480   0.0961053    0.683151    0.444801  0.00015953
2490   0.0999536      0.6845     -1.1785  8.53844e-05
2500   0.0943976    0.682552    0.343235  0.000210651
2510   0.0957406    0.683023     0.91708  2.9204e-05
2520   0.0938136    0.682347    0.714571  -4.65646e-05
2530   0.0966719    0.683349     1.52497  0.000105024
2540   0.0917131    0.681611    0.274851  0.00015538
2550   0.0935643     0.68226     1.45747  0.000124646
2560   0.0892202    0.680737     1.45827  0.00021321
2570   0.0893001    0.680765    0.916518  6.81765e-05
2580   0.0878566    0.680259     1.69498  -0.000135018
2590   0.0920005    0.681712   0.0709897  -0.000147737
2600   0.0908114    0.681295     1.05134  -1.47425e-05
2610   0.0922953    0.681815    -0.13198  6.19616e-05
2620   0.0895721    0.680861   -0.367805  0.000285417
2630    0.086587    0.679814   -0.705858  4.95065e-05
2640    0.088582    0.680514    -1.38269  -0.000186999
2650   0.0903269    0.681125   -0.302062  -0.000219612
2660   0.0929743    0.682053    -1.01198  0.000223004
2670   0.0858669    0.679562   -0.910083  0.000422331
2680   0.0845276    0.679092    -1.18048  -0.000123499
2690   0.0883368    0.680428    0.710445  -0.000123515
2700   0.0869979    0.679958   -0.302195  5.65887e-05
2710   0.0872051    0.680031  -0.0322607  0.000218515
2720   0.0826276    0.678426   -0.978003  -7.9025e-05
2730   0.0887856    0.680585    0.372227  0.000174357
2740   0.0791405    0.677204    0.913911  0.000485373
2750   0.0790781    0.677182    0.272211  6.25737e-06
2760   0.0790154     0.67716    0.575693  -0.000169545
2770    0.082469    0.678371   -0.777047  -6.54306e-05
2780    0.080324    0.677619   -0.743234  0.000103731
2790   0.0803944    0.677644    -1.45325  0.00011072
2800   0.0781096    0.676843   -0.506519  0.000123991
2810   0.0779145    0.676774   -0.134422  0.000235894
2820   0.0733917    0.675189    0.406963  -1.97582e-05
2830   0.0783097    0.676913    -0.57444  -0.000229534
2840   0.0779824    0.676798    0.473597  -9.2322e-05
2850   0.0801561     0.67756     1.01271  1.96818e-05
2860   0.0775887     0.67666   0.0329871  0.000435381
2870   0.0714485    0.674508   -0.844935  8.59115e-05
2880   0.0758705    0.676058   -0.406931  -0.000124986
2890   0.0739482    0.675384   0.0322933  0.000159334
2900   0.0726838    0.674941   -0.542707  8.67873e-05
2910   0.0722125    0.674775    -0.40736  0.000273285
2920   0.0672181    0.673025    -1.04873  0.000247065
2930   0.0672712    0.673043    -1.45464  0.000134772
2940   0.0645227     0.67208   -0.947954  0.000348663
2950   0.0602979    0.670599  -0.0686474  3.52316e-05
2960   0.0638181    0.671833    -1.28607  4.9294e-05
2970   0.0593121    0.670253  -0.0690769  7.57009e-05
2980    0.062304    0.671302   0.0318645  -3.10235e-05
2990   0.0599325    0.670471    -1.32002  6.94009e-05
3000    0.060916    0.670816   -0.373944  0.000224773
3010   0.0554371    0.668895    -0.91467  4.95661e-05
3020   0.0599247    0.670468    -1.15201  -0.000300822
3030   0.0614535    0.671004    -1.69287  0.000130997
3040   0.0573048     0.66955     -1.4899  0.000266441
3050   0.0561247    0.669136    -1.72678  9.10893e-05
3060    0.055483    0.668911     -1.3888  -3.08787e-05
3070   0.0567423    0.669353    -1.32196  3.71616e-05
3080   0.0547397    0.668651    0.536403  0.000425358
3090   0.0482351    0.666371    -0.34099  0.000248884
3100   0.0497621    0.666906   -0.477195  -5.04417e-05
3110    0.049244    0.666724    0.131517  3.13805e-05
3120   0.0491344    0.666686   0.0294552  0.000538578
3130   0.0384724    0.662948    0.537294  0.000566812
3140   0.0377982    0.662712     1.21337  -0.00010431
3150   0.0405586     0.66368     1.34683  -0.00015941
3160   0.0409864     0.66383     1.95482  8.80966e-05
3170   0.0387967    0.663062      1.0762  0.000447072
3180    0.032045    0.660695     0.19891  3.33188e-05
3190   0.0381303    0.662828   0.0967162  -0.000401765
3200   0.0400803    0.663512    0.941024  2.65855e-05
3210   0.0375986    0.662642    0.366452  5.50076e-06
3220   0.0399703    0.663473    0.129372  -4.28071e-05
3230   0.0384547    0.662942   -0.850281  0.000284073
3240   0.0342888    0.661482    0.265413  0.000187059
3250   0.0347135    0.661631   -0.207954  -0.000266016
3260   0.0396091    0.663347     0.22985  5.53049e-05
3270   0.0336074    0.661243    0.771634  0.000552028
3280   0.0285686    0.659477     1.04269  5.56448e-05
3290   0.0324946    0.660853    0.906748  -0.000161366
3300   0.0317959    0.660608    0.602541  0.000217801
3310   0.0281385    0.659326    0.534916  -7.07101e-05
3320   0.0332101    0.661104    0.263894  1.44278e-05
3330     0.02785    0.659225    0.838299  0.000317648
3340   0.0268571    0.658877    -0.47967  -9.16759e-05
3350   0.0296835    0.659867     1.34439  0.000135223
3360   0.0241527    0.657929     1.07472  7.82088e-05
3370   0.0281193    0.659319     1.30988  -7.01831e-05
3380   0.0255563    0.658421     1.58081  0.000356365
3390    0.020992    0.656821     1.61558  0.000157591
3400   0.0224045    0.657316    0.263202  -7.00045e-05
3410   0.0223921    0.657312    0.635164  9.42179e-05
3420   0.0205202    0.656655    0.567574  0.000359434
3430   0.0152034    0.654792   -0.344819  0.000195246
3440   0.0166152    0.655287    -0.81835  -0.000536724
3450   0.0259379    0.658554    -1.08997  8.12695e-05
3460   0.0149898    0.654717   -0.446783  0.000426004
3470   0.0174178    0.655568   -0.447442  -0.000134831
3480   0.0176865    0.655662    -1.12302  -9.20329e-05
3490   0.0192585    0.656213   -0.177575  1.92141e-06
3500    0.017648    0.655649     1.14076  8.87257e-05
3510    0.017484    0.655591    0.125974  9.63944e-05
3520   0.0157202    0.654973    0.126369  -4.89454e-05
3530   0.0184629    0.655934     0.36259  -0.000128914
3540   0.0182984    0.655877   -0.651304  0.000235366
3550   0.0137555    0.654284    0.329076  9.68535e-05
3560   0.0163614    0.655198    0.598746  -7.06337e-05
3570   0.0151682    0.654779    0.868779  0.000222146
3580   0.0119185     0.65364   -0.313977  3.90747e-05
3590   0.0143867    0.654505     1.84833  9.11317e-05
3600   0.0100958    0.653001     1.34175  0.000348713
3610  0.00741246    0.652061     1.81551  0.000158118
3620  0.00693346    0.651893        1.95  0.00015879
3630  0.00423666    0.650947      1.7812  -0.000122172
3640   0.0093769    0.652749     1.34086  -9.97016e-05
3650  0.00623069    0.651646     2.08435  0.000537897
3660  -0.00138105    0.648978      1.6801  0.000323582
3670  -0.000240943    0.649378      2.3213  -4.7109e-05
3680  -0.000438867    0.649308     2.01752  1.23107e-05
3690  -0.000487158    0.649292     1.91599  -6.986e-05
3700  0.000958333    0.649798     1.94908  4.23139e-05
3710  -0.00133344    0.648995     2.28729  4.9617e-05
3720  -3.40075e-05     0.64945     1.57714  0.000320351
3730  -0.00774046    0.646749     1.88191  4.24499e-05
3740  -0.000883006    0.649153     2.92856  -0.000287687
3750  -0.00198672    0.648766      2.6581  0.000276575
3760  -0.0064145    0.647214     3.60477  0.000511474
3770  -0.0122162     0.64518     3.50419  -5.46586e-05
3780  -0.00532133    0.647597     2.58988  -0.000190298
3790  -0.00841024    0.646514     2.28601  0.000263899
3800  -0.0105993    0.645747     2.18497  5.94877e-05
3810  -0.00959999    0.646097     3.40094  -0.000130487
3820  -0.00798956    0.646662     1.91375  0.000128583
3830  -0.0121716    0.645196      1.7788  8.26128e-05
3840  -0.00964182    0.646082      2.1503  9.87409e-05
3850  -0.0141465    0.644503     1.84612  -1.64937e-05
3860  -0.00931195    0.646198     2.38586  -0.000384455
3870  -0.00645735    0.647199     2.41924  7.56923e-05
3880  -0.0108258    0.645667     3.43386  0.000345049
3890  -0.0133583     0.64478     4.04195  0.000292252
3900  -0.0166708    0.643619     3.39985  3.80459e-05
3910  -0.0141193    0.644513     3.97406  -0.000108433
3920  -0.0145022    0.644379     3.43313  6.16557e-05
3930  -0.0153524    0.644081     4.64957  6.17832e-05
3940  -0.0157378    0.643946     3.77069  0.000225394
3950  -0.0198602    0.642501     2.45295  9.33422e-05
3960  -0.0176047    0.643291     2.99302  0.000109776
3970  -0.0220558    0.641731     3.70307  7.83534e-05
3980  -0.0191718    0.642742      2.3846  6.35601e-05
3990   -0.023327    0.641285      2.6551  0.00029851
4000   -0.025142    0.640649     2.51955  8.75184e-05
4010  -0.0250773    0.640672     2.51945  -6.94605e-05
4020  -0.0237527    0.641136     2.62063  8.81475e-05
4030  -0.0268403    0.640054     2.58774  0.000167045
4040  -0.0270936    0.639965     2.04612  0.000112421
4050  -0.0290887    0.639266     1.26894  0.000152311
4060  -0.0301399    0.638897     1.64051  0.000152898
4070  -0.0321467    0.638194     1.33667  0.000113551
4080  -0.0324109    0.638101     1.06584  -6.11285e-05
4090  -0.0309241    0.638622     1.16708  -0.000180835
4100  -0.0287942    0.639369     1.77556  -0.000125513
4110  -0.0284138    0.639502     2.21419  1.80155e-05
4120  -0.0291545    0.639243    0.997755  0.000154386
4130  -0.0315015     0.63842     2.21439  0.000162777
4140    -0.03241    0.638101     3.09277  5.07647e-05
4150  -0.0325168    0.638064      2.1465  0.000325095
4160  -0.0389119    0.635822     1.91005  0.000131898
4170  -0.0351548    0.637139     3.02468  -0.000206528
4180  -0.0347814     0.63727     2.85569  0.000116578
4190  -0.0374864    0.636322     3.09178  -1.30929e-05
4200  -0.0345195    0.637362     2.55056  6.04995e-05
4210  -0.0386963    0.635898     2.68647  0.000206638
4220  -0.0386523    0.635913     2.34868  -7.77923e-05
4230  -0.0371405    0.636443     2.38186  4.46774e-05
4240  -0.0395458      0.6356     1.57061  0.000208194
4250  -0.0413044    0.634984     2.01063  -4.2595e-06
4260  -0.0394607     0.63563     2.31427  6.17918e-05
4270  -0.0425402     0.63455     2.61908  -4.25931e-06
4280  -0.0393755     0.63566     2.48297  -0.000284065
4290  -0.0368589    0.636542     2.24586  -7.86426e-05
4300  -0.0378026    0.636211     2.34693  0.000202098
4310  -0.0409009    0.635125     1.57005  0.000111434
4320  -0.0400313     0.63543     1.73888  -7.87783e-05
4330  -0.0393253    0.635677     1.83998  -0.000262062
4340  -0.0347901    0.637267     1.73749  8.72888e-05
4350  -0.0410711    0.635065     1.90767  0.00017014
4360  -0.0381929    0.636074     2.00835  4.61143e-05
4370  -0.0419934    0.634742     1.46808  -0.000113449
4380  -0.0359239     0.63687     1.97384  -0.000180138
4390  -0.0383906    0.636005     2.07528  0.000213542
4400  -0.0401947    0.635373     2.00832  9.65305e-05
4410  -0.0403212    0.635328     2.17645  -4.23398e-06
4420    -0.04011    0.635402     2.37942  0.000181677
4430  -0.0439548    0.634054     2.75129  0.000122699
4440   -0.042564    0.634542      2.8862  0.000242389
4450  -0.0488025    0.632355     1.73822  -4.63098e-05
4460  -0.0416378    0.634867     2.14247  -0.00014744
4470  -0.0458537    0.633389     2.27828  0.000260328
4480  -0.0468444    0.633042     2.75096  2.23683e-05
4490  -0.0463011    0.633232     2.24381  0.000227995
4500  -0.0514043    0.631443     2.21033  -3.20505e-06
4510   -0.046237    0.633254      2.5812  -5.38254e-05
4520  -0.0503278     0.63182     2.31087  -8.07084e-05
4530  -0.0446228     0.63382     3.05381  -7.14755e-05
4540  -0.0488983    0.632322     3.18886  0.000281506
4550   -0.050253    0.631847      2.9182  0.000144371
4560  -0.0517857    0.631309     3.39196  0.000118857
4570  -0.0526301    0.631013     3.18916  0.000128055
4580  -0.0543468    0.630412     3.05388  0.000241581
4590  -0.0574617     0.62932     3.79688  0.000381786
4600  -0.0619825    0.627735     2.61482  0.00014727
4610  -0.0604071    0.628287     3.15485  -9.09697e-06
4620  -0.0618006    0.627799     4.57422  3.44155e-05
4630  -0.0610954    0.628046     4.26995  -7.94247e-05
4640  -0.0602121    0.628356     4.10046  0.000219459
4650  -0.0654846    0.626507     3.25695  0.000457691
4660  -0.0693659    0.625147     3.56036  0.000150441
4670  -0.0684934    0.625453     2.91757  9.83838e-05
4680  -0.0713336    0.624457     4.23634  0.000417553
4690  -0.0768445    0.622525     4.10142  0.000436623
4700   -0.080066    0.621396     4.23637  -0.000122172
4710   -0.074401    0.623382     4.03244  -0.000184159
4720  -0.0763828    0.622687     3.15393  0.000359324
4730  -0.0815875    0.620863     4.33728  0.000440891
4740  -0.0852006    0.619596     4.16841  0.000227536
4750  -0.0861382    0.619268     2.88462  -9.47364e-05
4760  -0.0833059     0.62026     4.70848  -0.000247788
4770  -0.0811825    0.621005     3.82967  0.000129968
4780  -0.0859053    0.619349     3.08677  0.000418965
4790  -0.0895618    0.618068     3.79642  0.000230571
4800  -0.0905167    0.617733     4.87784  7.75117e-05
4810   -0.091112    0.617524     3.76208  -0.000176644
4820  -0.0869838    0.618971     4.87678  0.000132714
4830  -0.0937663    0.616594      4.4048  0.000232595
4840  -0.0916357    0.617341     4.50502  -0.000295823
4850  -0.0878498    0.618668     4.20041  0.000142746
4860  -0.0944907     0.61634     4.53916  0.000270777
4870  -0.0932654    0.616769     4.03132  -0.000131958
4880  -0.0918515    0.617265     3.72708  0.00021764
4890  -0.0976182    0.615243     4.30224  0.000236217
4900  -0.0965758    0.615609     3.86259  -5.81104e-05
4910   -0.096456    0.615651     3.38932  0.000163976
4920  -0.0998553    0.614459     5.11261  0.000145688
4930  -0.0993697    0.614629     3.89577  8.15332e-05
4940   -0.101486    0.613888     3.55802  -0.000179424
4950  -0.0957812    0.615887     3.79388  0.000175606
4960   -0.104998    0.612656     4.80873  0.000521072
4970   -0.106203    0.612234     3.18698  -0.000160635
4980   -0.101785    0.613783     3.55782  -0.000123082
4990   -0.103741    0.613097      3.3216  -8.55286e-05
