Time   Number   
ps   
0          30          23
10          27          30
20          31          24
30          29          26
40          31          25
50          32          21
60          32          23
70          30          28
80          30          30
90          28          23
100          32          23
110          31          25
120          33          30
130          30          26
140          30          27
150          28          33
160          32          32
170          31          27
180          32          25
190          28          29
200          32          26
210          28          26
220          33          20
230          28          30
240          29          25
250          31          22
260          33          28
270          31          32
280          32          28
290          29          28
300          29          27
310          32          29
320          33          27
330          29          39
340          31          26
350          29          35
360          33          30
370          33          31
380          32          28
390          30          26
400          30          34
410          31          35
420          32          30
430          32          28
440          33          30
450          31          28
460          32          29
470          30          35
480          31          31
490          31          35
500          33          35
510          37          27
520          31          32
530          33          33
540          33          27
550          27          33
560          31          33
570          34          30
580          30          30
590          35          33
600          32          28
610          30          32
620          33          31
630          33          27
640          31          31
650          29          32
660          34          24
670          29          33
680          31          33
690          31          29
700          34          26
710          31          33
720          32          33
730          31          27
740          33          30
750          32          32
760          29          32
770          30          33
780          28          34
790          34          28
800          31          33
810          33          28
820          30          32
830          28          28
840          32          32
850          29          28
860          28          31
870          27          35
880          32          27
890          26          31
900          27          34
910          30          35
920          31          30
930          31          30
940          29          33
950          28          30
960          28          40
970          32          36
980          30          34
990          30          32
1000          33          32
1010          32          34
1020          30          31
1030          32          30
1040          29          37
1050          28          41
1060          31          32
1070          31          30
1080          33          26
1090          30          33
1100          32          31
1110          27          32
1120          33          28
1130          33          29
1140          32          25
1150          31          27
1160          32          31
1170          32          34
1180          33          29
1190          31          33
1200          33          34
1210          31          32
1220          29          32
1230          33          30
1240          31          32
1250          31          29
1260          34          23
1270          32          27
1280          30          30
1290          31          25
1300          33          30
1310          30          32
1320          30          32
1330          32          28
1340          31          31
1350          31          36
1360          29          35
1370          29          32
1380          36          31
1390          31          27
1400          31          30
1410          29          32
1420          31          35
1430          28          32
1440          34          30
1450          31          30
1460          33          27
1470          29          36
1480          27          33
1490          31          34
1500          29          31
1510          30          30
1520          32          32
1530          30          33
1540          29          38
1550          30          30
1560          29          30
1570          33          29
1580          34          29
1590          33          26
1600          32          27
1610          34          28
1620          26          40
1630          30          32
1640          32          26
1650          29          37
1660          29          34
1670          31          34
1680          35          25
1690          28          33
1700          33          33
1710          34          33
1720          34          37
1730          30          35
1740          30          36
1750          33          35
1760          28          31
1770          27          38
1780          34          31
1790          31          31
1800          29          33
1810          27          37
1820          28          30
1830          29          28
1840          34          30
1850          30          31
1860          32          27
1870          28          32
1880          28          35
1890          33          31
1900          29          34
1910          34          33
1920          28          33
1930          32          32
1940          34          26
1950          33          32
1960          31          31
1970          33          34
1980          28          42
1990          32          30
2000          31          30
2010          34          29
2020          29          33
2030          31          26
2040          29          30
2050          26          32
2060          33          27
2070          29          31
2080          33          29
2090          28          36
2100          27          31
2110          29          27
2120          32          25
2130          27          25
2140          32          20
2150          30          29
2160          27          29
2170          32          26
2180          31          27
2190          31          25
2200          33          25
2210          26          29
2220          31          24
2230          28          26
2240          29          26
2250          31          25
2260          31          26
2270          32          28
2280          30          22
2290          30          28
2300          29          28
2310          33          26
2320          32          26
2330          31          24
2340          29          29
2350          27          33
2360          32          26
2370          27          31
2380          30          26
2390          29          27
2400          28          31
2410          32          33
2420          30          27
2430          26          27
2440          27          33
2450          28          33
2460          32          26
2470          34          31
2480          29          31
2490          31          29
2500          27          33
2510          30          28
2520          32          28
2530          35          30
2540          30          33
2550          29          30
2560          32          34
2570          27          34
2580          28          41
2590          29          39
2600          33          35
2610          30          38
2620          30          33
2630          30          35
2640          32          27
2650          29          32
2660          34          31
2670          32          32
2680          29          35
2690          33          29
2700          31          33
2710          26          36
2720          26          29
2730          33          27
2740          29          29
2750          26          39
2760          31          36
2770          32          31
2780          32          28
2790          33          32
2800          27          35
2810          28          35
2820          27          30
2830          29          36
2840          31          36
2850          30          37
2860          32          29
2870          32          29
2880          32          25
2890          28          29
2900          32          24
2910          26          31
2920          31          32
2930          30          30
2940          29          33
2950          29          35
2960          29          32
2970          31          26
2980          31          28
2990          28          32
3000          29          31
3010          31          30
3020          26          29
3030          29          35
3040          29          29
3050          31          27
3060          34          31
3070          32          29
3080          31          34
3090          34          28
3100          34          31
3110          34          26
3120          30          34
3130          33          27
3140          31          33
3150          32          30
3160          28          33
3170          31          28
3180          31          37
3190          27          39
3200          29          40
3210          27          35
3220          25          33
3230          30          31
3240          29          32
3250          25          37
3260          29          33
3270          29          34
3280          29          32
3290          29          40
3300          29          30
3310          27          37
3320          31          31
3330          28          31
3340          32          29
3350          30          31
3360          29          33
3370          28          32
3380          29          32
3390          30          38
3400          29          33
3410          28          32
3420          32          31
3430          31          30
3440          28          31
3450          28          32
3460          30          30
3470          29          35
3480          29          29
3490          30          32
3500          27          36
3510          29          33
3520          24          38
3530          34          31
3540          27          34
3550          31          33
3560          27          31
3570          28          31
3580          29          37
3590          30          28
3600          25          36
3610          31          32
3620          30          34
3630          29          33
3640          30          31
3650          30          37
3660          28          32
3670          30          27
3680          31          32
3690          30          33
3700          28          29
3710          30          34
3720          31          31
3730          33          30
3740          34          25
3750          33          30
3760          30          28
3770          32          35
3780          28          35
3790          29          30
3800          32          26
3810          31          32
3820          34          30
3830          31          40
3840          35          31
3850          33          28
3860          27          31
3870          33          39
3880          31          33
3890          32          34
3900          30          32
3910          32          29
3920          34          32
3930          32          31
3940          30          38
3950          30          33
3960          29          37
3970          32          39
3980          35          33
3990          33          29
4000          32          29
4010          34          28
4020          35          34
4030          31          42
4040          33          34
4050          32          37
4060          33          29
4070          29          35
4080          32          32
4090          32          37
4100          31          35
4110          29          29
4120          31          27
4130          30          31
4140          32          33
4150          33          31
4160          30          33
4170          31          32
4180          30          35
4190          33          32
4200          32          33
4210          30          29
4220          32          29
4230          30          33
4240          32          32
4250          31          31
4260          30          31
4270          29          35
4280          32          30
4290          26          31
4300          29          35
4310          31          27
4320          32          29
4330          28          37
4340          32          35
4350          32          32
4360          30          29
4370          31          33
4380          33          29
4390          32          30
4400          33          32
4410          31          32
4420          32          32
4430          30          35
4440          32          30
4450          30          36
4460          27          29
4470          32          27
4480          28          30
4490          31          27
4500          30          35
4510          29          31
4520          32          33
4530          27          34
4540          30          25
4550          29          27
4560          30          35
4570          30          27
4580          30          33
4590          33          32
4600          31          28
4610          31          35
4620          33          22
4630          28          32
4640          34          28
4650          33          25
4660          31          29
4670          32          30
4680          31          30
4690          30          32
4700          31          27
4710          28          28
4720          30          28
4730          30          29
4740          29          25
4750          29          28
4760          31          27
4770          31          25
4780          26          29
4790          30          28
4800          29          29
4810          34          24
4820          27          36
4830          28          27
4840          32          28
4850          26          33
4860          31          29
4870          34          30
4880          29          35
4890          32          27
4900          30          33
4910          34          36
4920          30          34
4930          29          28
4940          30          36
4950          30          36
4960          29          31
4970          28          38
4980          30          29
4990          28          30
5000          28          32
5010          29          29
5020          30          28
5030          30          25
5040          26          34
5050          26          30
5060          27          35
5070          24          36
5080          29          31
5090          28          32
5100          28          33
5110          28          32
5120          26          30
5130          28          34
5140          30          30
5150          31          35
5160          28          31
5170          30          30
5180          33          21
5190          29          35
5200          30          34
5210          29          33
5220          30          40
5230          31          37
5240          27          37
5250          28          37
5260          29          35
5270          31          36
5280          31          34
5290          33          31
5300          28          31
5310          31          33
5320          27          32
5330          33          32
5340          28          38
5350          28          36
5360          31          32
5370          31          35
5380          35          26
5390          33          32
5400          29          36
5410          32          28
5420          30          39
5430          34          30
5440          34          33
5450          29          35
5460          31          30
5470          26          33
5480          30          33
5490          26          38
5500          31          34
5510          28          33
5520          27          34
5530          29          36
5540          30          31
5550          30          35
5560          30          31
5570          30          38
5580          33          32
5590          30          39
5600          30          38
5610          31          35
5620          33          36
5630          32          35
5640          35          32
5650          32          38
5660          28          43
5670          31          43
5680          27          41
5690          26          43
5700          27          41
5710          27          41
5720          29          36
5730          25          44
5740          29          41
5750          32          33
5760          28          39
5770          30          39
5780          27          35
5790          30          36
5800          29          37
5810          32          31
5820          31          36
5830          31          31
5840          30          34
5850          32          36
5860          31          35
5870          29          37
5880          33          36
5890          29          34
5900          25          37
5910          32          39
5920          30          39
5930          27          36
5940          33          35
5950          33          34
5960          26          36
5970          30          34
5980          31          39
5990          33          34
6000          37          30
6010          33          36
6020          33          36
6030          33          31
6040          34          33
6050          32          33
6060          34          37
6070          31          33
6080          38          29
6090          31          41
6100          29          38
6110          34          30
6120          32          33
6130          29          33
6140          31          29
6150          30          30
6160          31          35
6170          30          36
6180          34          29
6190          32          32
6200          32          33
6210          30          38
6220          28          37
6230          31          33
6240          31          40
6250          29          34
6260          35          26
6270          32          27
6280          32          32
6290          31          40
6300          31          32
6310          35          28
6320          34          32
6330          28          34
6340          32          29
6350          31          33
6360          28          42
6370          32          33
6380          31          32
6390          32          32
6400          30          34
6410          34          31
6420          31          31
6430          30          31
6440          32          30
6450          32          30
6460          35          32
6470          32          29
6480          30          30
6490          31          39
6500          30          32
6510          28          35
6520          32          29
6530          28          37
6540          28          31
6550          26          32
6560          27          39
6570          29          37
6580          29          36
6590          28          37
6600          31          38
6610          31          32
6620          35          27
6630          29          35
6640          30          38
6650          33          37
6660          31          39
6670          31          37
6680          25          36
6690          29          34
6700          30          41
6710          31          31
6720          30          36
6730          31          41
6740          33          32
6750          29          35
6760          29          35
6770          30          37
6780          31          39
6790          29          41
6800          32          30
6810          33          38
6820          32          38
6830          30          38
6840          32          33
6850          33          35
6860          34          31
6870          31          34
6880          31          37
6890          33          35
6900          31          35
6910          34          29
6920          31          36
6930          33          34
6940          28          34
6950          32          32
6960          31          37
6970          27          39
6980          29          35
6990          29          33
7000          32          30
7010          33          28
7020          34          34
7030          29          35
7040          31          33
7050          34          37
7060          31          36
7070          32          36
7080          32          32
7090          31          32
7100          30          34
7110          29          36
7120          29          33
7130          31          32
7140          30          31
7150          30          37
7160          31          28
7170          27          28
7180          28          28
7190          29          31
7200          30          28
7210          31          28
7220          31          28
7230          30          31
7240          27          33
7250          31          30
7260          33          27
7270          29          29
7280          30          30
7290          31          36
7300          28          28
7310          28          28
7320          29          25
7330          29          31
7340          32          29
7350          28          33
7360          26          31
7370          28          31
7380          26          30
7390          26          35
7400          29          31
7410          29          36
7420          29          30
7430          28          35
7440          30          31
7450          29          33
7460          30          32
7470          30          33
7480          33          30
7490          30          30
7500          32          34
7510          30          36
7520          30          35
7530          32          33
7540          31          28
7550          31          35
7560          30          33
7570          30          29
7580          29          33
7590          30          31
7600          29          34
7610          29          33
7620          30          34
7630          28          30
7640          32          28
7650          32          32
7660          29          33
7670          31          35
7680          32          30
7690          31          34
7700          29          34
7710          27          33
7720          31          36
7730          32          31
7740          30          33
7750          30          34
7760          34          35
7770          29          36
7780          31          33
7790          31          30
7800          31          35
7810          29          32
7820          30          36
7830          31          36
7840          32          32
7850          29          27
7860          32          32
7870          31          29
7880          28          34
7890          30          35
7900          29          34
7910          34          31
7920          30          32
7930          30          32
7940          34          33
7950          28          29
7960          30          30
7970          30          27
7980          31          31
7990          32          26
8000          30          27
8010          32          30
8020          29          25
8030          31          32
8040          30          33
8050          29          28
8060          29          29
8070          27          30
8080          32          25
8090          28          27
8100          29          25
8110          33          29
8120          29          29
8130          31          31
8140          31          30
8150          28          36
8160          31          33
8170          33          21
8180          24          32
8190          29          33
8200          27          30
8210          29          26
8220          27          32
8230          29          35
8240          27          30
8250          29          28
8260          30          30
8270          29          27
8280          29          28
8290          28          30
8300          25          30
8310          28          25
8320          29          26
8330          28          29
8340          25          36
8350          29          36
8360          31          33
8370          30          31
8380          29          38
8390          32          27
8400          30          29
8410          30          28
8420          29          32
8430          28          34
8440          29          35
8450          30          23
8460          29          33
8470          28          28
8480          28          28
8490          28          34
8500          27          23
8510          31          27
8520          30          30
8530          34          22
8540          28          36
8550          30          31
8560          30          26
8570          32          26
8580          31          30
8590          30          34
8600          31          33
8610          29          34
8620          36          32
8630          30          27
8640          30          28
8650          36          30
8660          32          36
8670          34          27
8680          36          30
8690          34          31
8700          33          32
8710          35          28
8720          29          43
8730          32          31
8740          34          30
8750          29          32
8760          27          37
8770          35          29
8780          32          32
8790          31          27
8800          29          22
8810          29          30
8820          31          29
8830          28          34
8840          32          28
8850          31          26
8860          26          41
8870          27          33
8880          32          29
8890          29          33
8900          32          30
8910          31          27
8920          30          31
8930          30          34
8940          28          33
8950          29          29
8960          30          24
8970          30          36
8980          31          37
8990          30          31
9000          32          30
9010          32          30
9020          28          27
9030          29          27
9040          30          28
9050          31          28
9060          31          29
9070          32          26
9080          34          25
9090          30          23
9100          30          26
9110          31          24
9120          28          24
9130          28          31
9140          28          30
9150          27          24
9160          27          24
9170          31          23
9180          32          30
9190          32          24
9200          31          23
9210          28          25
9220          28          21
9230          30          24
9240          29          29
9250          31          24
9260          29          25
9270          29          24
9280          27          30
9290          26          23
9300          25          30
9310          25          30
9320          31          21
9330          29          24
9340          32          21
9350          26          33
9360          30          19
9370          29          24
9380          28          29
9390          26          24
9400          29          24
9410          28          23
9420          29          23
9430          30          26
9440          25          27
9450          30          20
9460          27          25
9470          31          22
9480          32          20
9490          29          23
9500          30          21
9510          27          26
9520          26          24
9530          31          20
9540          29          27
9550          32          22
9560          31          25
9570          30          20
9580          29          23
9590          25          30
9600          28          27
9610          28          26
9620          31          23
9630          29          27
9640          32          22
9650          29          28
9660          30          24
9670          27          26
9680          28          28
9690          30          25
9700          33          25
9710          29          26
9720          29          21
9730          32          25
9740          30          28
9750          29          25
9760          34          27
9770          29          27
9780          35          24
9790          30          31
9800          29          31
9810          27          32
9820          29          31
9830          30          32
9840          32          25
9850          32          27
9860          31          33
9870          34          25
9880          29          33
9890          34          29
9900          32          29
9910          32          32
9920          31          29
9930          31          28
9940          28          32
9950          30          26
9960          25          30
9970          26          26
9980          27          26
9990          31          24
10000          29          27
