Time   C(t)   
ps   
0           1           1  3.64459e-10   0.0174186
10     0.82847    0.857955   -0.823586  0.00962519
20    0.807496    0.840586    0.582362  0.00183178
30    0.791835    0.827617     1.32085  0.00140276
40    0.779441    0.817353    0.582153  0.00118134
50    0.768208    0.808051    0.367286  0.00106932
60    0.758055    0.799643    0.676972  0.00107289
70     0.74675    0.790282   -0.466862  0.00109342
80    0.736186    0.781534   -0.729023  0.000945482
90    0.727841    0.774623   -0.277409  0.000833961
100    0.719507    0.767721   -0.372857  0.000855544
110     0.71073    0.760453    0.651278  0.000897035
120    0.701566    0.752865   -0.325494  0.000770751
130    0.695315    0.747688    -1.18443  0.000795293
140     0.68566    0.739693   -0.660339  0.000711146
150    0.681092    0.735909   -0.232093  0.000652879
160    0.672603     0.72888    -1.35107  0.000791228
170    0.665267    0.722805   -0.613162  0.000687066
180    0.658862      0.7175    -1.20903  0.000689915
190    0.651469    0.711379    -2.04273  0.000641072
200     0.64604    0.706883    -1.61467  0.000560707
210    0.640255    0.702092    -1.04325  0.000613615
220    0.633768     0.69672   -0.209679  0.000611925
230    0.628016    0.691957   -0.568055  0.000584427
240    0.622079    0.687041   -0.139228  0.000579894
250    0.616419    0.682353   -0.925361  0.000482979
260     0.61242    0.679041    -1.16474  0.000440735
270    0.607604    0.675053   -0.426757  0.000561559
280    0.601189    0.669741   -0.926617  0.000606027
290    0.595483    0.665016    -1.35556  0.000540704
300    0.590374    0.660786    -0.52139  0.00046508
310    0.586182    0.657314   -0.522414  0.000500903
320    0.580356     0.65249   -0.665038  0.000552654
330    0.575129     0.64816    -1.59463  0.000507322
340     0.57021    0.644087   -0.761137  0.000547665
350    0.564175     0.63909    -1.26158  0.000577906
360    0.558652    0.634516    -1.78571  0.000455156
370    0.555072    0.631551     -1.6915  0.000515985
380    0.548332     0.62597    -1.93001  0.000575402
390    0.543564    0.622022    -1.59642  0.00045242
400    0.539284    0.618477    -2.43125  0.000489968
410    0.533765    0.613907   -0.429897  0.000540751
420    0.528469    0.609521    -1.33531  0.000515473
430    0.523455    0.605369    -1.95464  0.000540087
440    0.517667    0.600576     -1.4545  0.000452921
450    0.514397    0.597868    -1.55041  0.000403947
460    0.509588    0.593886   -0.311571  0.000459266
470    0.505212    0.590261  -0.00183772  0.000380567
480    0.501977    0.587583   -0.502605  0.000366646
490    0.497879    0.584189    -1.02709  0.000388087
500    0.494215    0.581155    -1.21768  0.000465903
510    0.488561    0.576473   -0.765115  0.000441575
520    0.485383    0.573842    0.377696  0.000364034
530     0.48128    0.570443   -0.765976  0.000336556
540    0.478652    0.568268   -0.623235  0.000390823
550    0.473463    0.563971   -0.147091  0.000516488
560    0.468323    0.559713    0.115303  0.000423789
570    0.464988    0.556952   0.0672179  0.000312945
580    0.462064     0.55453   -0.457406  0.000413626
590    0.456715    0.550101   -0.552132  0.000427827
600    0.453507    0.547445   -0.242445  0.000235903
610    0.451997    0.546194   -0.410066  0.000369777
620    0.446112     0.54132    -1.07636  0.000469257
630    0.442612    0.538422   -0.124282  0.000338338
640    0.439345    0.535717   -0.672738  0.000388621
650     0.43484    0.531986   -0.529858  0.000372851
660    0.431888    0.529541   -0.578175  0.000403862
670    0.426762    0.525297   -0.363308  0.000333782
680    0.425212    0.524013   -0.507141  0.000260769
690    0.421547    0.520978   -0.840405  0.000359334
700    0.418026    0.518062   -0.507025  0.000298157
710    0.415584     0.51604   -0.602752  0.00025651
720    0.412895    0.513814   -0.579826  0.000360075
730    0.408382    0.510076   -0.365285  0.00041233
740    0.404649    0.506984   -0.221916  0.000278083
750    0.402821    0.505471    0.492393  0.000286411
760    0.398921    0.502241     0.15899  0.00028085
770    0.397204    0.500819   0.0865382  0.000295241
780    0.393016    0.497351    -0.12705  0.000347611
790    0.390251    0.495062   -0.341778  0.000299601
800    0.387024    0.492389   -0.270977  0.000216185
810    0.385928    0.491481    0.228348  0.000209126
820    0.382841    0.488925   -0.390606  0.000351901
830     0.37889    0.485653   -0.366541  0.000328101
840    0.376279    0.483491    0.466769  0.000325784
850    0.372374    0.480258   0.0860493  0.000323375
860    0.369812    0.478136    0.728907  0.000208822
870    0.368198    0.476799    0.346675  0.000267786
880    0.364456      0.4737     1.63327  0.000312981
890    0.361938    0.471615     1.63325  0.000275189
900    0.358952    0.469143     1.44231  0.000268003
910    0.356578    0.467177     1.41841  0.000253177
920    0.353889     0.46495     1.39418  0.000321859
930    0.350141    0.461846     1.58505  0.000291501
940    0.348059    0.460122     2.08463  0.000230148
950    0.345538    0.458034     1.82245  0.000281897
960    0.342421    0.455453     1.10783  0.000238957
970    0.340759    0.454077     2.44119  0.000264467
980    0.337131    0.451073     2.60858  0.000302362
990    0.334711    0.449069     2.32249  0.000271906
1000    0.331693    0.446569     2.32219  0.000283413
1010    0.329043    0.444375     2.32196  0.000179271
1020    0.328108      0.4436     2.36886  0.000182873
1030    0.325386    0.441346     2.84565  0.000274102
1040    0.322626    0.439061     2.13048  0.000263742
1050    0.320111    0.436978     2.10707  0.000190507
1060    0.318816    0.435905     3.15462  0.000205159
1070    0.316008     0.43358     2.36832  0.000241737
1080    0.313981    0.431902     2.63027  0.000221838
1090    0.311571    0.429906     2.67794  0.000189179
1100    0.310197    0.428768     2.77278  0.000189638
1110    0.307778    0.426765     3.03506  0.000232726
1120    0.305543    0.424914     2.93947  0.000228532
1130    0.303207     0.42298     2.96302  0.000233792
1140    0.300867    0.421042     3.36795  0.000213683
1150    0.298934    0.419441     3.43919  0.000188757
1160    0.297092    0.417916     3.10544  0.000200319
1170    0.294927    0.416123     3.20098  0.000168909
1180    0.293714    0.415118       2.438  0.00019806
1190    0.290966    0.412843     3.15315  0.000241514
1200    0.288883    0.411118     2.84309  0.000149411
1210    0.287978    0.410368     2.79489  0.000185017
1220    0.285183    0.408054     3.36672  0.000215758
1230    0.283663    0.406795     2.98532  0.000230765
1240    0.280568    0.404232     2.86646  0.000240828
1250    0.278846    0.402806     3.08095  0.00015467
1260    0.277474     0.40167     3.10402  0.000200109
1270    0.274844    0.399492     2.74699  0.000231111
1280    0.272852    0.397842     3.36632  0.000136505
1290    0.272114    0.397231     3.08019  0.000120726
1300    0.270437    0.395843      2.6505  0.000258358
1310    0.266947    0.392952     2.46051  0.000247544
1320    0.265487    0.391743     2.05507  0.000167234
1330    0.263602    0.390183      2.4839  0.000169183
1340    0.262103    0.388941      2.4836  0.000206955
1350    0.259463    0.386755     1.81665  0.000213876
1360    0.257825    0.385399     1.81633  0.000240463
1370    0.254654    0.382772     1.86392  0.000286564
1380    0.252094    0.380653     2.12608  0.000226898
1390    0.250116    0.379014       2.102  0.00019807
1400    0.248133    0.377372     2.36413  0.000138034
1410    0.247355    0.376728     2.29217  0.000104048
1420    0.246052    0.375649     1.81509  0.000169819
1430    0.243959    0.373916     1.83883  0.000155387
1440    0.242944    0.373075     1.48151  0.000178821
1450    0.240382    0.370954     1.57667  0.000297565
1460    0.236993    0.368147     1.41019  0.000202713
1470    0.236328    0.367597     1.64785  0.000148957
1480    0.234014     0.36568     1.09997  0.000183859
1490    0.232651    0.364552     1.48074  0.000149642
1500    0.231021    0.363202      1.3377  0.000196314
1510    0.228725      0.3613    0.980273  0.00019507
1520    0.227119    0.359971     1.69491  0.000172341
1530    0.225278    0.358446    0.765871  0.000234197
1540    0.222435    0.356092    0.599297  0.000183149
1550    0.221615    0.355413    0.289029  0.000103822
1560    0.220359    0.354373    0.193744  0.00011905
1570    0.219234    0.353441    0.241131  0.000214403
1580    0.216071    0.350822    0.860853  0.000258213
1590     0.21407    0.349164       0.694  0.000170287
1600    0.212665    0.348001     1.40847  0.000177425
1610    0.210521    0.346226    0.431724  0.000211319
1620    0.208439    0.344501     1.43203  0.000257144
1630    0.205378    0.341967    0.812932  0.000214025
1640    0.204158    0.340957    0.693465  0.000147356
1650    0.202431    0.339526    0.907471  0.00016451
1660    0.200868    0.338232     1.14578  0.000191893
1670    0.198593    0.336348     1.31293  0.00020583
1680    0.196751    0.334823     1.28875  0.000199597
1690    0.194601    0.333042     2.00359  0.000140815
1700    0.193935    0.332491     1.31223  0.000144628
1710    0.191709    0.330647    0.955115  0.000204274
1720     0.18985    0.329108    0.954974  0.000209887
1730    0.187511    0.327171     1.14543  0.000230756
1740    0.185235    0.325286    0.978226  0.000159825
1750    0.184314    0.324524     1.50187  0.000127907
1760    0.182676    0.323167     1.26371  0.000172541
1770    0.180864    0.321666      1.6448  0.000178069
1780    0.179115    0.320218    0.906099  0.00015285
1790    0.177807    0.319135     1.81121  0.000170376
1800    0.175708    0.317396     1.23964  0.000201612
1810    0.173774    0.315795     1.38234  0.000234752
1820    0.171012    0.313508     1.57318  0.000178546
1830    0.170204    0.312838     1.57258  0.000117134
1840     0.16867    0.311568     1.97771  0.000163895
1850    0.166926    0.310124     1.47699  0.000214333
1860    0.164383    0.308019     1.73927  0.000200991
1870    0.162906    0.306795     1.33379  0.000184255
1880    0.160698    0.304967     1.78675  0.000184663
1890    0.159213    0.303737     1.23853  0.000117529
1900    0.158347     0.30302     1.28577  0.000166479
1910    0.155883    0.300979    0.881173  0.000227639
1920    0.153795     0.29925    0.952392  0.000137715
1930    0.153129    0.298699    0.261427  0.000171249
1940     0.15037    0.296414     1.09544  0.00019947
1950    0.149139    0.295395    0.618827  0.000144155
1960    0.147487    0.294026    0.571091  0.000130486
1970     0.14653    0.293234    0.928397  0.000123855
1980    0.145009    0.291975    0.713762  0.000190771
1990    0.142714    0.290074     0.95216  0.000219287
2000    0.140624    0.288343     1.16631  0.000181169
2010    0.139091    0.287074     1.49966  0.000164069
2020    0.137342    0.285626     1.38048  0.00020499
2030    0.134991    0.283679     1.78566  0.000200164
2040    0.133339    0.282311     1.30928  0.000124754
2050    0.132496    0.281612      1.6188  0.000133976
2060     0.13066    0.280092     1.68988  0.00018561
2070    0.128784    0.278538      1.4519  0.00013108
2080    0.128038    0.277921     1.35622  0.000159904
2090    0.125586     0.27589      1.3802  0.000112206
2100    0.125794    0.276062    0.760544  5.39035e-05
2110    0.124507    0.274997     1.09402  0.000182283
2120    0.122148    0.273043     1.64205  0.000186254
2130    0.120782    0.271912      1.1178  9.02914e-05
2140    0.120342    0.271548     1.02182  8.34137e-05
2150    0.119114    0.270531     0.54549  0.000117619
2160     0.11799      0.2696    0.926024  0.000137663
2170    0.116361    0.268251    0.544886  0.00013798
2180     0.11523    0.267315     1.28347  0.000181535
2190     0.11273    0.265244    0.783539  0.000198109
2200    0.111268    0.264034     1.18839  0.000144599
2210    0.109838    0.262849    0.735617  6.37338e-05
2220    0.109994    0.262978    0.782818  4.7721e-05
2230    0.108884    0.262059     1.09271   0.0001256
2240    0.107482    0.260898    0.330368  0.000107785
2250    0.106728    0.260274    0.663468  0.000117175
2260    0.105138    0.258957    0.544746  8.10728e-05
2270    0.105107    0.258931    0.425606  5.59278e-05
2280    0.104019    0.258031    0.282422  0.000125236
2290    0.102602    0.256857     1.16391  0.000112754
2300    0.101764    0.256163    0.615942  4.73339e-05
2310    0.101655    0.256073    0.758171  8.22604e-05
2320    0.100119    0.254801     1.06832  0.00010252
2330   0.0996048    0.254375    0.734571  0.000132191
2340   0.0974754    0.252612   -0.170168  0.000139784
2350   0.0968091     0.25206    0.019983  5.20017e-05
2360   0.0964353     0.25175    0.353037  9.0808e-05
2370    0.094993    0.250556    0.591504  0.000100194
2380   0.0944315    0.250091    0.424698  0.000111593
2390   0.0927611    0.248708  -0.00396672  0.000158008
2400   0.0912713    0.247474    0.639124  8.44117e-05
2410   0.0910729     0.24731    0.162677    3.47e-05
2420   0.0905773    0.246899    0.138425  0.000110845
2430    0.088856    0.245474  -0.00445518  0.000144495
2440   0.0876874    0.244506   -0.004618  0.000107705
2450   0.0867018     0.24369    0.233594  0.000100546
2460   0.0856765    0.242841    0.685882  0.000164238
2470   0.0834171     0.24097    0.590853  0.000125374
2480    0.083169    0.240764  -0.0288921  0.000118355
2490     0.08105     0.23901    0.161816  0.000127916
2500   0.0806107    0.238646   -0.171772  6.64789e-05
2510   0.0797204    0.237909   -0.434027  7.03808e-05
2520   0.0792031     0.23748  -0.0293345  8.75168e-05
2530   0.0779701    0.236459    0.160979  0.000114062
2540   0.0769218    0.235591   -0.172494  0.000131356
2550    0.075343    0.234284   -0.744341  0.000110904
2560   0.0747038    0.233754   -0.291775  6.58959e-05
2570    0.074025    0.233192   -0.291821  8.68995e-05
2580   0.0729658    0.232315   -0.458743  4.35118e-05
2590   0.0731548    0.232472   -0.292635  7.97611e-05
2600   0.0713705    0.230994   -0.292333  0.000150168
2610   0.0701514    0.229984    0.184486  8.40142e-05
2620   0.0696903    0.229603    0.445926  6.14177e-05
2630   0.0689231    0.228967   0.0885269  0.000109273
2640   0.0675048    0.227793   -0.101693  9.42431e-05
2650   0.0670382    0.227406    0.469805  8.69069e-05
2660   0.0657667    0.226353  -0.0305443  7.94273e-05
2670   0.0654497    0.226091  -0.0308233  2.59798e-05
2680   0.0652471    0.225923   0.0882475  5.8724e-05
2690   0.0642752    0.225118  -0.0070603  9.73154e-05
2700   0.0633008    0.224311   -0.340603  8.02353e-05
2710   0.0626705    0.223789   -0.459907  6.69781e-05
2720   0.0619612    0.223202   -0.388548  9.03463e-05
2730   0.0608636    0.222293   -0.293519  9.05659e-05
2740   0.0601499    0.221702   -0.317538   8.309e-05
2750   0.0592018    0.220917   -0.912706  9.88223e-05
2760   0.0581734    0.220065    -1.10316  8.16056e-05
2770   0.0575697    0.219565    -1.65117  6.24049e-05
2780   0.0569253    0.219032    -1.36516  5.08938e-05
2790   0.0565518    0.218722    -1.62718   3.155e-05
2800   0.0562943    0.218509    -1.84186  7.65627e-05
2810   0.0550205    0.217454    -1.67501  5.5182e-05
2820   0.0551907    0.217595    -1.03243  2.60683e-05
2830   0.0544992    0.217023    -1.31789  7.31626e-05
2840   0.0537274    0.216384    -1.34186  8.51378e-05
2850   0.0527964    0.215613    -1.07949  5.58622e-05
2860   0.0526102    0.215458    -1.00827  1.27336e-05
2870   0.0525417    0.215402   -0.913218  9.40077e-07
2880   0.0525914    0.215443    -1.05603  3.8485e-05
2890    0.051772    0.214764    -1.07991  6.87838e-06
2900   0.0524538    0.215329   -0.985065  3.47389e-05
2910   0.0510773    0.214189     -1.3899  7.43737e-05
2920   0.0509664    0.214097    -1.24702  5.0829e-05
2930   0.0500607    0.213347   -0.960744  8.67248e-05
2940   0.0492319    0.212661    -0.69877  7.50251e-05
2950   0.0485602    0.212104   -0.865389  2.33736e-05
2960   0.0487644    0.212274   -0.913288  -4.46439e-06
2970   0.0486495    0.212178    -1.03241  6.15258e-05
2980   0.0475339    0.211255   -0.794193  3.5581e-05
2990   0.0479378    0.211589    -0.62762  1.97388e-05
3000   0.0471391    0.210928   -0.222346  5.38711e-05
3010   0.0468604    0.210697   0.0632283  3.99778e-05
3020   0.0463395    0.210266   -0.294217  1.18591e-05
3030   0.0466232      0.2105    0.205876  -4.19263e-06
3040   0.0464234    0.210335    -0.10374   3.618e-05
3050   0.0458996    0.209901   0.0631117  5.90384e-06
3060   0.0463053    0.210237   -0.223021  3.43652e-05
3070   0.0452123    0.209332  -0.0323353  7.69757e-05
3080   0.0447658    0.208962    0.253448  7.52132e-05
3090   0.0437081    0.208086   -0.294426  5.50345e-05
3100   0.0436651    0.208051   -0.318468  -1.81265e-05
3110   0.0440706    0.208387    0.205573  2.27261e-06
3120   0.0436197    0.208013   0.0626704  6.96853e-05
3130   0.0426769    0.207232   -0.628318  5.7568e-05
3140   0.0424683     0.20706  -0.0804193  4.34408e-05
3150   0.0418081    0.206513   0.0385117  9.28158e-05
3160    0.040612    0.205523     0.11015  8.27597e-05
3170   0.0401529    0.205142     0.22936  3.56888e-05
3180   0.0398982    0.204931   -0.128062  2.96248e-05
3190   0.0395604    0.204652   -0.128109  0.000101999
3200   0.0378582    0.203242   -0.294729  8.77209e-05
3210    0.037806    0.203199   -0.104113  5.23366e-06
3220   0.0377535    0.203155    0.467548  5.08912e-05
3230   0.0367881    0.202356   -0.413892  4.47433e-05
3240   0.0368587    0.202414   -0.128388  -7.06986e-06
3250   0.0369295    0.202473    -0.15229  6.58464e-05
3260   0.0355418    0.201324   -0.247598  0.000132725
3270    0.034275    0.200275   -0.342813  8.29587e-05
3280   0.0338826     0.19995   -0.223556  3.09374e-05
3290   0.0336563    0.199762    -0.15236  3.10462e-05
3300   0.0332617    0.199436   -0.223719  4.16225e-05
3310   0.0328238    0.199073   -0.271663  5.64668e-05
3320   0.0321323      0.1985   -0.295473  0.000105053
3330   0.0307228    0.197333   -0.462163  9.89789e-05
3340   0.0301527    0.196861   -0.414451  8.45593e-05
3350   0.0290316    0.195933   -0.199816  6.36212e-05
3360   0.0288803    0.195807    0.443274  6.68392e-06
3370   0.0288979    0.195822  -0.00992149  7.46094e-05
3380   0.0273881    0.194572   -0.628876  7.6846e-05
3390    0.027361    0.194549   0.0617626  -5.8067e-06
3400   0.0275043    0.194668   -0.343581  5.81294e-05
3410   0.0261984    0.193587   -0.486204  7.74147e-05
3420    0.025956    0.193386   -0.462442  3.28314e-05
3430   0.0255418    0.193043   -0.129109  7.7879e-05
3440   0.0243984    0.192096   0.0613909  0.000103792
3450   0.0234659    0.191324    0.156722  8.26546e-05
3460   0.0227453    0.190727    0.180578  5.28131e-05
3470   0.0224097    0.190449    0.299416  7.88497e-05
3480   0.0211683    0.189421  -0.0816292  8.11791e-05
3490   0.0207861    0.189105    0.108708  8.58171e-05
3500    0.019452       0.188   -0.558238  6.65327e-05
3510   0.0194554    0.188003   -0.534662  2.78272e-05
3520   0.0188954    0.187539   -0.082211  6.91131e-05
3530   0.0180732    0.186858   -0.582327  0.000101922
3540    0.016857    0.185851   -0.248831  4.77665e-05
3550   0.0171178    0.186067   -0.391874  2.18567e-05
3560   0.0164198    0.185489   -0.368321  8.30127e-05
3570   0.0154576    0.184692    0.108335  7.45041e-05
3580   0.0149298    0.184255   0.0844558  9.23004e-05
3590   0.0136116    0.183163    -0.60616  7.27704e-05
3600   0.0134744     0.18305   -0.487368  7.52887e-05
3610   0.0121058    0.181916   -0.391897  0.000106251
3620   0.0113493     0.18129   -0.725487  8.23802e-05
3630   0.0104582    0.180552   -0.511015  8.04179e-05
3640  0.00974097    0.179958   -0.749273  7.62621e-05
3650  0.00893296    0.179289   -0.677961  8.97866e-05
3660  0.00794524    0.178471   -0.892223  5.89922e-05
3670  0.00775311    0.178312   -0.821004  6.36896e-05
3680  0.00667144    0.177416   -0.868553  0.000130593
3690  0.00514125    0.176149   -0.487205  8.86152e-05
3700  0.00489914    0.175948   -0.439796  3.54108e-05
3710  0.00443304    0.175562   -0.773292  5.78649e-05
