Time   C(t)   
ps   
0           1           1  9.6965e-10   0.0382612
10    0.626059    0.855624    -1.26549   0.0200307
20    0.599385    0.845326    -2.74203  0.00180026
30    0.590054    0.841723    -2.20658  0.00115947
40    0.576196    0.836372    -0.45783  0.00107616
50    0.568531    0.833413   -0.405025  0.00125308
60    0.551134    0.826696    0.134834  0.00107704
70     0.54699    0.825096    -1.77493  0.000534841
80    0.540437    0.822566   -0.806914  0.000789765
90    0.531194    0.818998   -0.805706  0.00076372
100    0.525163    0.816669    -0.59139  0.000566003
110    0.519874    0.814627   0.0544714  0.000329718
120    0.518568    0.814123   -0.591705  0.00039947
130    0.511885    0.811543    0.645166  0.00042069
140    0.510155    0.810875   -0.403949  0.000442499
150    0.503035    0.808126  -6.54969e-05  0.000691952
160    0.496316    0.805531    0.484285  0.000648431
170    0.490066    0.803119    0.564148  0.000310442
180    0.490107    0.803134  -0.0550753  0.000404984
190    0.481967    0.799991   -0.967926  0.000530262
200    0.479501     0.79904   0.0799549  0.000361471
210    0.474737      0.7972     1.66604  0.000435133
220    0.470799     0.79568    0.832686  0.000404659
230    0.466644    0.794076    -0.80757  0.000454323
240    0.461712    0.792171   -0.484442  0.000340137
250    0.459841    0.791449    -1.31887  0.00048753
260    0.451962    0.788407    -1.07553  0.000376447
270    0.452312    0.788542    0.106987  0.000153777
280    0.448886    0.787219    0.187139  0.000150381
290    0.449305    0.787381    0.589709  0.000291075
300    0.443065    0.784972    0.133547  0.000238709
310    0.444531    0.785538   -0.916514  0.000120169
320    0.440661    0.784044   -0.996035  0.000563237
330    0.433266    0.781188    0.671489  0.000346026
340    0.433741    0.781372   -0.700097  0.000258987
350    0.428086    0.779189    0.187638  8.63448e-05
360    0.432014    0.780705  -0.0568874  1.29223e-05
370    0.427828    0.779089   -0.809303  0.000192751
380    0.428159    0.779217    0.266082  0.000349043
390    0.420847    0.776394    0.401192  0.000508857
400    0.417982    0.775287    0.105044  4.56423e-05
410    0.419934    0.776041    -1.72441  6.72474e-05
420    0.416637    0.774768   -0.729335  0.000127541
430    0.417383    0.775056   -0.649551  0.000167117
440    0.413294    0.773478   -0.218241  0.000241975
450    0.412544    0.773188    0.184644  0.000196347
460    0.409368    0.771962    0.507956  0.000357194
470      0.4054     0.77043    -1.15965  0.000150752
480    0.406352    0.770797    -1.50947  0.000229988
490      0.4008    0.768654    -1.05223  0.000305292
500    0.400247     0.76844    -2.39681  0.00010913
510    0.398617    0.767811   -0.945384  6.98343e-05
520     0.39885    0.767901    -1.32239  0.000195785
530    0.394702    0.766299    -1.83312  0.00028581
540    0.393134    0.765694    -3.17767  0.000182191
550    0.391058    0.764892    -1.51057  0.000171746
560    0.389699    0.764368    -1.69853  0.000200978
570    0.387038     0.76334     -1.3489  0.000352958
580     0.38264    0.761642    -2.69311  0.000172928
590     0.38358    0.762005    -1.24185  -6.51702e-05
600    0.383943    0.762145    -2.42513  0.000144708
610    0.380686    0.760888    -2.74797  0.000322452
620    0.377494    0.759655    -2.42526  0.000297752
630    0.374731    0.758588    -2.31789  0.000229408
640    0.372906    0.757884    -2.02153  0.000335404
650    0.368023    0.755999    -1.86054  0.000405113
660    0.364804    0.754756     -3.2046  0.000129053
670    0.365441    0.755002    -2.02253  7.48515e-05
680    0.363307    0.754178    -2.80192  0.000126028
690    0.362921    0.754029    -2.77489  0.000177513
700    0.359756    0.752807     -3.3126  0.000214364
710    0.358634    0.752374    -3.95867  0.000229609
720    0.355164    0.751034    -3.85125  0.000307006
730    0.352494    0.750003    -3.09841  0.000179195
740     0.35158     0.74965     -2.7762  -4.93228e-07
750    0.352503    0.750007    -3.04453  -1.14322e-05
760    0.351809    0.749739    -3.28727  -4.83125e-05
770     0.35347     0.75038    -3.82579  0.000206159
780    0.347686    0.748147    -3.47521  0.000501531
790    0.343439    0.746507    -4.60432  0.000247678
800    0.342732    0.746234    -2.15808  3.01346e-05
810    0.342836    0.746274    -1.99778  8.95321e-05
820    0.340941    0.745543    -3.69223  0.000367717
830    0.335482    0.743435    -4.01371  0.00035346
840    0.333872    0.742813    -3.42267  7.19711e-05
850    0.334043    0.742879    -4.71453  0.000116895
860    0.331534    0.741911    -3.61137  0.000165471
870    0.330733    0.741601     -4.1221  0.000150944
880    0.328515    0.740745    -3.90757  4.66838e-05
890    0.329799    0.741241    -4.17734  -2.77191e-05
900     0.32907    0.740959    -3.74727  0.000252658
910    0.324746     0.73929    -3.20893  0.000477719
920    0.319515     0.73727    -3.69276  0.000201279
930    0.320721    0.737736      -3.183  -8.31246e-05
940    0.321178    0.737912    -2.10793  0.00013831
950    0.317955    0.736668    -3.10225  0.000379094
960    0.313596    0.734985    -1.08532  0.000172819
970    0.314498    0.735333    -2.40313  0.000256439
980    0.308467    0.733005    -3.04795  0.000275429
990     0.30899    0.733206    -2.80665  0.000250018
1000    0.303467    0.731074     -3.1018  0.000167023
1010    0.305649    0.731917    -3.04942  0.000114797
1020    0.301171    0.730188    -3.29056  0.00027011
1030    0.300247    0.729831    -2.48413  3.56227e-05
1040    0.300459    0.729913    -3.10317  -1.74612e-05
1050    0.300596    0.729966    -2.99604  4.71622e-05
1060    0.299515    0.729548    -4.04442  0.000119606
1070    0.298204    0.729042    -4.20622  0.000180787
1080      0.2959    0.728152    -3.15783  0.000238408
1090    0.293436    0.727201    -3.13093  0.000384173
1100    0.288216    0.725186    -3.31835  0.000247076
1110    0.288494    0.725293    -4.69017  -0.000127271
1120    0.290762    0.726169    -3.40071  -6.98566e-05
1130    0.289891    0.725833    -3.61563  0.00010626
1140    0.288636    0.725348    -2.13651  0.000171794
1150    0.286456    0.724506    -2.00209  0.000272171
1160    0.283193    0.723247    -2.70073  0.000307369
1170    0.280308    0.722133    -1.32911  0.000153869
1180    0.280116    0.722058    -3.48073  0.000216138
1190    0.275985    0.720464    -1.41008  0.000200941
1200    0.276097    0.720507    -3.13162  0.000162956
1210    0.272726    0.719205    -2.88875  0.000294818
1220      0.2702     0.71823    -1.94789  0.000276116
1230    0.267204    0.717073    -1.19495  0.000303896
1240    0.264122    0.715884    -1.57143  -4.12434e-05
1250    0.268029    0.717392    -2.59493  0.000211947
1260    0.259883    0.714247    -1.67872  0.000387022
1270    0.260288    0.714403    -2.75477  6.08414e-05
1280    0.258667    0.713777    -2.40531  0.000177945
1290     0.25673    0.713029    -3.53458  0.000240886
1300    0.253849    0.711917    -2.35109  0.000221859
1310    0.252292    0.711316    -2.43148  -9.09686e-05
1320    0.255668    0.712619    -2.48681  7.38159e-05
1330    0.250816    0.710746    -2.40566  0.000415088
1340    0.247367    0.709414    -1.67935  3.48046e-05
1350     0.25012    0.710477    -1.41134  -0.000208712
1360    0.251541    0.711026    -1.92306  0.000109895
1370    0.247922    0.709629    -3.13285  -6.4075e-07
1380    0.251554    0.711031    -3.67203  -8.09729e-06
1390    0.248084    0.709691    -2.78379  0.000216872
1400    0.247216    0.709356    -2.19315  0.000142292
1410    0.245238    0.708592    -2.62275  0.000332788
1420     0.24056    0.706786    -2.99848  0.000325455
1430    0.238729    0.706079     -3.0797  0.000179404
1440    0.236972    0.705401     -3.4559  0.000195776
1450    0.234814    0.704568    -3.29536  0.000263873
1460    0.231695    0.703364    -2.05783  0.000228567
1470    0.230242    0.702803    -3.61723  6.16051e-05
1480    0.230463    0.702888    -2.54187  -0.000181928
1490    0.233881    0.704207    -3.21502  -5.01886e-05
1500    0.231467    0.703275    -2.35427  0.00014561
1510    0.230969    0.703083    -2.70422  0.000150119
1520    0.228464    0.702116    -2.13909  0.000122238
1530    0.228524    0.702139    -1.62862  -1.3987e-05
1540    0.228744    0.702224    -1.68298  7.05123e-05
1550    0.227114    0.701595    -3.18797  0.000292186
1560      0.2229    0.699968    -2.62336   0.0003653
1570    0.219808    0.698774    -1.97831  -3.36237e-05
1580    0.223573    0.700228    -1.79076  6.37971e-05
1590    0.218532    0.698281    -2.73149  0.000464211
1600    0.214288    0.696643    -3.16088   0.0001046
1610     0.21644    0.697474    -2.57021  5.65417e-05
1620    0.213158    0.696206    -2.65121  -1.26749e-05
1630    0.216693    0.697571     -2.3291  -7.33152e-05
1640    0.214624    0.696773    -2.30262  0.000239736
1650    0.211898     0.69572    -2.86649  0.000117938
1660    0.212265    0.695862    -3.08241  8.57346e-05
1670    0.210184    0.695058     -3.7816  -8.18223e-06
1680    0.212429    0.695925    -3.43312  4.52489e-05
1690    0.209279    0.694709    -3.19059  0.000213005
1700    0.208169     0.69428    -3.16353  0.000131655
1710    0.206646    0.693692    -3.02926  0.000226351
1720    0.203642    0.692532    -2.57181  6.64443e-05
1730    0.205317    0.693179    -2.92205  9.98214e-05
1740    0.201645    0.691762     -3.6209  0.00014507
1750    0.202415    0.692059    -3.62153  0.000174619
1760    0.198153    0.690413    -4.74991  0.000191268
1770     0.19859    0.690582    -4.37442  9.68426e-05
1780    0.196216    0.689665    -3.80955  0.000101034
1790    0.196569    0.689802    -3.05651  -4.78119e-05
1800    0.197172    0.690035    -5.42309  -2.26125e-06
1810    0.196614    0.689819    -5.10125  -6.05084e-05
1820    0.198382    0.690502    -2.62766  0.000180917
1830    0.192996    0.688422    -3.99873  0.000310048
1840    0.192181    0.688108    -4.10686  0.000306929
1850    0.186858    0.686052    -5.15429  0.000244776
1860    0.187286    0.686218    -4.91278  3.09572e-06
1870    0.186796    0.686028    -4.16047  0.000225031
1880    0.182785     0.68448    -4.34831  0.000137336
1890    0.184049    0.684968    -4.61753  6.23621e-05
1900    0.181538    0.683998    -5.04724  0.000251461
1910     0.17902    0.683026    -4.67102  0.000180562
1920    0.177927    0.682604    -5.80055  -8.8606e-05
1930    0.180792     0.68371    -4.16108  0.000113963
1940    0.175648    0.681724    -4.45675  0.000253097
1950     0.17573    0.681756    -3.40856  0.000135669
1960    0.172934    0.680677    -3.54241  5.9583e-05
1970    0.174538    0.681296    -4.64548  -0.000109586
1980    0.175126    0.681523    -3.30148  0.00025945
1990    0.169349    0.679292    -4.88714  0.000127856
2000    0.172569    0.680535    -3.48897  -3.29062e-05
2010    0.170007    0.679546    -4.29556  0.000102995
2020    0.170509     0.67974    -3.75848  0.000210049
2030    0.165806    0.677925     -3.7583  0.000257257
2040    0.165364    0.677754    -4.40358  0.000151261
2050    0.162781    0.676757    -4.86095  1.8765e-05
2060    0.164988    0.677609    -4.29627  0.000143456
2070    0.159912    0.675649    -3.70423  0.000413814
2080    0.156712    0.674413    -4.88764  0.000195754
2090    0.155997    0.674137    -4.34988  -3.1694e-05
2100    0.157346    0.674658    -5.07648  0.000377805
2110    0.148441     0.67122    -3.48944  0.000356508
2120    0.150216    0.671905    -5.04931  -7.39939e-05
2130    0.149921    0.671791    -3.94716  5.11386e-05
2140    0.149193     0.67151    -4.00117  0.000198478
2150    0.145951    0.670259    -4.45751  0.000276948
2160    0.143654    0.669372     -3.0057  0.000199559
2170     0.14196    0.668718    -4.43077  0.00014355
2180    0.140783    0.668263     -4.1351  4.65438e-06
2190    0.141867    0.668682    -3.49018  0.000135607
2200    0.138071    0.667216    -2.87166  0.000161813
2210    0.138631    0.667432    -3.83987  -4.29258e-05
2220     0.13893    0.667548    -3.67878  7.50825e-05
2230    0.137129    0.666852    -5.18455  0.000140879
2240    0.136112     0.66646    -4.29713  -4.2972e-05
2250    0.137988    0.667184    -4.29742  0.000168034
2260    0.132751    0.665162    -4.16244  0.000189995
2270    0.134189    0.665717    -3.67912  0.000120377
2280    0.130344    0.664233     -3.8669  8.51013e-05
2290    0.132487     0.66506    -4.59362  -2.91236e-05
2300    0.130926    0.664458    -4.21727  0.000288929
2310    0.126708    0.662829    -3.78664  0.00024967
2320    0.125933     0.66253    -2.81876  -1.54689e-05
2330    0.127017    0.662948    -3.65303  -1.53922e-05
2340    0.126241    0.662648    -3.81457  0.000224537
2350    0.122527    0.661215    -4.19063  0.000416308
2360    0.117915    0.659434    -4.21703  -2.39596e-05
2370    0.123006      0.6614    -4.70267  5.69969e-05
2380    0.116775    0.658994    -4.72818  0.000454107
2390    0.113924    0.657893    -3.54506  0.000146768
2400    0.113839     0.65786    -4.56675  -9.90652e-05
2410    0.115905    0.658658    -4.43332  -4.4778e-07
2420    0.113848    0.657864    -4.19097  8.24369e-06
2430     0.11574    0.658594    -3.22369  8.48323e-06
2440    0.113678    0.657798    -4.16478  2.17829e-05
2450    0.115304    0.658426    -4.03041  -2.30335e-05
2460    0.114139    0.657976    -5.10624  5.80236e-05
2470    0.114144    0.657978    -5.05249  0.000121589
2480    0.111707    0.657037    -4.29971  0.000262082
2490    0.108902    0.655954    -3.78937  7.68654e-05
2500     0.11017    0.656444    -2.68682  0.000100038
2510    0.106902    0.655182    -3.92349  0.000304591
2520    0.104078    0.654092    -4.05788  3.68584e-05
2530    0.106164    0.654897     -3.7351  -0.000236231
2540    0.108803    0.655916    -3.92472  -6.33497e-05
2550    0.107431    0.655386    -3.81651  0.00027901
2560    0.103223    0.653761    -3.97831  0.00019258
2570     0.10358    0.653899    -3.84407  -3.57542e-05
2580    0.103938    0.654038    -4.19357  8.80659e-05
2590    0.101818    0.653219    -3.38675  0.000161697
2600    0.100704    0.652789    -4.38154  0.000139188
2610   0.0990347    0.652144    -3.52204  2.8915e-05
2620    0.100126    0.652566    -3.57584  5.22576e-05
2630   0.0979895    0.651741    -3.38709  1.35861e-06
2640    0.100098    0.652555    -3.81803  6.2909e-06
2650   0.0978637    0.651692    -2.60827  0.000237659
2660   0.0953452     0.65072    -1.96278  0.000433103
2670   0.0892016    0.648348    -2.33861  0.000238925
2680   0.0905667    0.648875    -3.60225  -5.75989e-05
2690   0.0903536    0.648793    -2.09723  -4.85599e-05
2700   0.0915379     0.64925    -2.15122  0.00017529
2710   0.0868478    0.647439    -1.42518  4.92934e-05
2720    0.090552    0.648869    -1.66773  -0.000137089
2730   0.0895896    0.648498    -2.39401  0.000194719
2740   0.0866576    0.647366    -3.41559  5.44496e-05
2750   0.0885006    0.648077    -2.68992  -6.24929e-05
2760   0.0879075    0.647848    -3.09296  -3.93592e-05
2770   0.0892878    0.648381    -1.72225  0.000111408
2780   0.0856793    0.646988    -1.96435  0.000318879
2790   0.0829102    0.645919    -2.09828  0.000244282
2800   0.0807937    0.645102     -2.5824  0.000249724
2810   0.0779157    0.643991     -1.6945  -1.95906e-05
2820   0.0811855    0.645253    -1.58829  2.34887e-05
2830    0.077446    0.643809    -1.58756  0.000236756
2840   0.0764504    0.643425    -3.17438  -0.000142863
2850   0.0803032    0.644912    -2.82556  -0.000123874
2860   0.0789278    0.644381    -2.85283  0.000199752
2870   0.0763082     0.64337    -1.18491  -1.47127e-05
2880   0.0792221    0.644495    -3.09533  -0.00016744
2890    0.079657    0.644663    -1.93895  3.31145e-05
2900   0.0785598    0.644239     -1.7776  0.000114619
2910   0.0773646    0.643778    -2.47671  0.000110096
2920   0.0763579    0.643389     -1.9928  0.00015854
2930   0.0741938    0.642554     -3.9559  0.000288983
2940   0.0705782    0.641158    -3.20262  0.000144985
2950   0.0712941    0.641434    -2.23539  -2.82206e-05
2960   0.0711427    0.641376    -1.88575  0.000310279
2970   0.0650885    0.639038    -1.80432  0.000344675
2980   0.0642492    0.638714     -2.5845  0.000214989
2990   0.0607887    0.637378    -2.58363  0.000404876
3000   0.0561516    0.635588    -4.08946  0.000109254
3010   0.0586036    0.636534    -2.63806  -6.5341e-05
3020   0.0574585    0.636092    -2.90707  6.59354e-05
3030   0.0572849    0.636025    -2.96106  7.1107e-05
3040   0.0560363    0.635543    -2.79939  -8.04702e-05
3050   0.0588943    0.636647    -1.64417  -0.000114704
3060   0.0583304    0.636429    -3.90278  8.59199e-05
3070   0.0571759    0.635983      -1.375  0.000292495
3080   0.0524805     0.63417    -2.36947  7.65644e-05
3090   0.0556447    0.635392     -2.7194  3.79697e-05
3100   0.0517211    0.633877    -2.61174  0.00010169
3110   0.0536109    0.634607    -1.96682  -9.53062e-05
3120   0.0536272    0.634613    -2.58563  0.000156703
3130   0.0504768    0.633397     -2.7731  0.000181728
3140   0.0499927     0.63321    -2.02036  0.000197359
3150   0.0465296    0.631873     -2.0205  7.83706e-05
3160   0.0484253    0.632605    -1.96716  5.91118e-05
3170   0.0453474    0.631416     -1.0529  8.88299e-05
3180   0.0466487    0.631919    -2.34394  0.000149331
3190   0.0423608    0.630263     -2.9081  0.000214363
3200   0.0423614    0.630263    -2.85448  -7.5152e-05
3210   0.0438638    0.630843    -1.69863  -2.00693e-05
3220   0.0427628    0.630418    -1.72574  0.00018057
3230   0.0402524    0.629449    -1.72545  0.000261495
3240   0.0375329    0.628399     -2.1023  0.000141342
3250   0.0374256    0.628358    -1.80636  0.000146992
3260    0.034593    0.627264    -1.96745  4.11034e-05
3270   0.0366035     0.62804    -1.40403  0.000102292
3280   0.0325472    0.626474    -1.16105  0.000335312
3290   0.0298973    0.625451    -1.13434  5.22111e-05
3300    0.031503    0.626071   -0.408925  -7.94668e-05
3310   0.0314866    0.626065     -1.4577  8.81121e-05
3320   0.0297407    0.625391    -1.10838  0.000185116
3330   0.0277843    0.624635   -0.194137  4.78499e-05
3340   0.0287837    0.625021    -0.51695  0.000104438
3350   0.0256955    0.623829   -0.892934  8.39206e-05
3360   0.0271053    0.624373   -0.544086  -4.36971e-05
3370   0.0265695    0.624166   -0.920019  0.000243711
3380   0.0222311    0.622491     -1.2964  0.000275011
3390   0.0210692    0.622043    -1.56567  0.000167911
3400   0.0188729    0.621195    -1.10838  8.3751e-06
3410   0.0209017    0.621978    -1.24312  -1.71515e-05
3420   0.0192159    0.621327   -0.355753  0.000174032
3430   0.0174211    0.620634   0.0207829  0.000138285
3440   0.0164502    0.620259   -0.220748  0.000185479
3450   0.0137115    0.619202  -0.0327572  -4.8066e-05
3460   0.0174115     0.62063    -1.18963  -1.12774e-05
3470   0.0139371    0.619289   -0.141044  0.000165472
3480   0.0141021    0.619353   -0.812781  0.000129694
3490   0.0113432    0.618288   -0.866874  0.000150782
3500   0.0110864    0.618188    -1.00159  0.00012003
3510  0.00894258    0.617361    -2.13057  -9.4897e-05
3520   0.0129844    0.618921    -1.75508  7.87258e-05
3530  0.00736806    0.616753    -2.10419  0.000125572
3540   0.0104729    0.617952    -2.26552  -7.89882e-05
3550  0.00894783    0.617363    -1.59381  5.77148e-05
3560  0.00931865    0.617506    -1.00232  -4.7711e-05
3570  0.00990205    0.617731   -0.760661  0.000179921
3580  0.00572022    0.616117   -0.571749  0.000100524
3590  0.00789157    0.616955    -1.67514  -3.14703e-05
3600  0.00634962     0.61636    -1.37894  -2.12194e-05
3610  0.00831595    0.617119   -0.707017  -3.70433e-05
3620  0.00709049    0.616646    -1.16439  8.53795e-05
3630  0.00660836    0.616459   -0.223532  0.000101744
3640  0.00505562     0.61586   -0.707645  1.09532e-05
3650   0.0063893    0.616375  -0.00866588  1.12234e-05
3660  0.00483115    0.615773   -0.250197  -5.11769e-06
3670  0.00649165    0.616414  -0.00903346  7.04742e-05
3680  0.00342166    0.615229    0.206438  0.00016734
3690  0.00314486    0.615122   -0.385069  1.15553e-05
3700  0.00319056     0.61514     0.36737  3.86257e-05
3710  0.00237235    0.614824   -0.815645  -2.08875e-05
3720  0.00360831    0.615301   -0.896637  8.22765e-05
3730  0.000726818    0.614189   -0.412444  0.000147371
3740  0.000660898    0.614163   -0.708696  -3.6889e-05
3750   0.0014646    0.614473   -0.709327  0.000306412
3760  -0.00546735    0.611797    -1.05762  0.000230342
3770  -0.00314224    0.612695   -0.251615  -3.06289e-05
3780  -0.00485477    0.612034   -0.896716  3.46504e-05
3790  -0.00383525    0.612427  -0.0633348  -8.87683e-06
3800  -0.00467723    0.612102   -0.305521  4.58738e-05
3810  -0.00475272    0.612073   -0.601618  0.000117622
3820  -0.00702967    0.611194   -0.547764  0.000112342
3830  -0.00699956    0.611206  -0.0102414  -0.000190728
3840  -0.00321511    0.612667   -0.387038  1.90659e-05
3850  -0.00738088    0.611058    0.688399  0.000267671
3860  -0.00856852      0.6106    0.634858  -6.4052e-05
3870  -0.00609984    0.611553       1.011  -8.38279e-06
3880  -0.00840086    0.610664     1.22548  0.000208242
3890  -0.0102647    0.609945    0.849649  0.000147672
3900  -0.0113543    0.609524    0.715353  0.000198455
3910  -0.0142338    0.608412    -0.57532  5.35311e-05
3920  -0.0124249    0.609111    0.365402  5.41331e-05
3930  -0.0153164    0.607994   0.0155568  0.000222268
3940  -0.0168703    0.607395    -1.14056  0.00029613
3950  -0.0212391    0.605708   -0.575268  8.85907e-05
3960  -0.0186421     0.60671   -0.924484  -0.000158656
3970  -0.0180659    0.606933   -0.845198  4.96021e-05
3980  -0.0196341    0.606327     0.71467  3.83401e-05
3990  -0.0188327    0.606637   -0.469056  0.000163341
4000  -0.0229009    0.605066   -0.845172  0.000282638
4010  -0.0244855    0.604454   -0.791606  0.000101852
4020   -0.024938     0.60428    0.149222  9.66183e-05
4030  -0.0264179    0.603708   -0.146506  0.000176703
4040   -0.028472    0.602915  -0.0928862  6.29636e-05
4050  -0.0276771    0.603222    -1.27651  0.000235166
4060  -0.0331754    0.601099   0.0955253  -0.000137336
4070  -0.0249304    0.604283   -0.067274  -4.47083e-05
4080  -0.0322812    0.601444   -0.361818  0.000471637
4090  -0.0343632    0.600641   -0.469503  2.99266e-05
4100  -0.0328797    0.601213  -0.0669319   4.186e-05
4110  -0.0352003    0.600317    0.148749  1.17328e-06
4120  -0.0329032    0.601204    0.739681  4.21688e-05
4130  -0.0360437    0.599992    0.659109  0.000163696
4140  -0.0361771     0.59994    0.470722  -6.22304e-05
4150  -0.0347991    0.600472   -0.228968  -3.89963e-05
4160  -0.0353972    0.600241  -0.0135744  5.40406e-05
4170  -0.0358799    0.600055   -0.363684  6.58968e-05
4180  -0.0367151    0.599733    0.147384  0.000130497
4190  -0.0384899    0.599047    0.604754  0.000177776
4200  -0.0402706     0.59836   -0.255868  0.000119629
4210  -0.0408824    0.598124    0.981028  -9.75369e-05
4220  -0.0383199    0.599113    0.227745  -0.000174186
4230  -0.0373987    0.599469    0.254594  0.000291476
4240  -0.0441494    0.596862    0.765766  0.000203086
4250  -0.0414604      0.5979  -0.0948057  -6.79115e-05
4260  -0.0427912    0.597387    0.927567  -1.50751e-05
4270  -0.0411589    0.598017    0.738658  -0.000169455
4280  -0.0394021    0.598695    0.200425  4.43531e-05
4290   -0.042046    0.597674    0.415869  1.42956e-05
4300   -0.039688    0.598585      1.2762  -0.000146545
4310  -0.0391151    0.598806    0.899118  -2.14973e-05
4320  -0.0392581    0.598751     1.11456  -9.65651e-06
4330   -0.038922    0.598881     1.03344  2.36966e-06
4340  -0.0393055    0.598732    0.226931  9.86176e-05
4350  -0.0408943    0.598119     1.14117  0.000213414
4360  -0.0435737    0.597085     1.16826  0.000280492
4370  -0.0465042    0.595953    0.469251  0.000233074
4380  -0.0482352    0.595285    0.764665  0.000124901
4390  -0.0490022    0.594989   -0.525773  1.00655e-05
4400  -0.0484365    0.595207    0.307688  -2.62678e-05
4410  -0.0484768    0.595191    0.441983  9.54606e-05
4420  -0.0503457     0.59447    0.764611  -2.03703e-05
4430  -0.0480694    0.595349    0.441694  7.77917e-05
4440  -0.0519016    0.593869    0.737764  8.98024e-05
4450  -0.0498655    0.594655    0.038492  -0.00017942
4460  -0.0483132    0.595255     1.19392  0.000158077
4470   -0.053027    0.593435    0.387682  0.000244305
4480  -0.0531993    0.593368    0.333512  0.000214773
4490  -0.0573225    0.591776    0.360676  7.91736e-05
4500  -0.0547828    0.592757   -0.150524  -0.000118154
4510  -0.0549594    0.592689    0.844055  0.000327964
4520   -0.061342    0.590224    0.790963  0.000359642
4530  -0.0621522    0.589912    0.763718  -0.0001181
4540    -0.05898    0.591136     0.62895  -0.000205471
4550  -0.0580428    0.591498      0.1177  3.73829e-05
4560  -0.0597277    0.590848     1.08617  0.000200076
4570  -0.0620443    0.589953     1.86532  0.00010037
4580  -0.0617351    0.590073    0.709103  5.69738e-05
4590  -0.0631838    0.589513     1.24697  0.000258493
4600  -0.0669049    0.588077     1.73079  8.89301e-05
4610  -0.0649624    0.588827     1.67636  0.000197274
4620  -0.0708504    0.586553     0.62811  0.000266922
4630  -0.0703008    0.586765     1.99946  8.45306e-05
4640   -0.072541      0.5859     1.97277  5.28056e-05
4650  -0.0713569    0.586358     1.97248  0.000167903
4660  -0.0758991    0.584604      1.5423  0.000212688
4670  -0.0756107    0.584715     1.91886  -0.00011201
4680  -0.0736589    0.585469     2.26771  -8.66763e-05
4690  -0.0738772    0.585385     1.75701  -0.000183472
4700  -0.0699894    0.586886     1.40661  0.000381896
4710  -0.0815151    0.582436     1.94558  0.000484952
4720  -0.0796885    0.583141     1.00391  4.92856e-05
4730  -0.0825008    0.582055     1.19235  8.78189e-05
4740  -0.0814449    0.582463     1.35357  4.29191e-06
4750  -0.0825866    0.582022     1.80987  0.000172812
4760  -0.0849011    0.581128     0.92279  0.000212403
4770  -0.0868347    0.580382    0.520062  -7.98605e-05
4780  -0.0833039    0.581745    0.519299  0.000109624
4790  -0.0890272    0.579535    0.116308  0.00018761
4800  -0.0870561    0.580296     1.35302  1.21806e-05
4810  -0.0892708    0.579441    0.815446  0.000274417
4820  -0.0925444    0.578177       1.138  0.00030825
4830  -0.0954358    0.577061     1.86351  0.000223796
4840  -0.0970203    0.576449     1.86346  0.000165379
4850  -0.0987434    0.575784     1.99825  4.69238e-05
4860  -0.0979588    0.576087      2.0514  2.08259e-05
4870  -0.0991599    0.575623    0.868357  6.72091e-05
4880   -0.099303    0.575568     1.48663  8.75641e-05
4890   -0.100911    0.574947     2.05158  0.00036777
4900   -0.106658    0.572728     1.08414  0.000342089
4910   -0.107753    0.572305     2.24002  -0.000171492
4920   -0.103229    0.574052     1.37908  -5.09221e-05
4930   -0.106735    0.572699     1.40577  0.000492401
4940   -0.113077     0.57025     2.85825  0.000177637
4950   -0.110287    0.571327     3.20762  3.8363e-06
4960   -0.113153     0.57022     2.91116  0.000165495
4970   -0.113597    0.570049     2.77655  0.000179937
4980   -0.116752    0.568831     2.32004  0.000160068
4990   -0.116798    0.568813     1.97025   0.0001402
