Time   Number   
ps   
0          40         132
10          41         120
20          41         128
30          41         134
40          43         119
50          40         130
60          40         129
70          42         128
80          44         128
90          40         118
100          40         121
110          43         137
120          39         135
130          43         126
140          44         141
150          42         129
160          38         122
170          41         135
180          43         131
190          41         124
200          39         124
210          38         130
220          39         124
230          38         116
240          40         126
250          41         129
260          37         120
270          37         122
280          42         119
290          40         125
300          40         127
310          36         130
320          39         129
330          38         131
340          41         130
350          43         124
360          38         129
370          42         125
380          42         118
390          37         125
400          38         129
410          38         114
420          38         120
430          41         121
440          43         117
450          38         121
460          43         125
470          43         123
480          42         115
490          38         123
500          37         127
510          41         118
520          38         121
530          38         120
540          39         120
550          39         123
560          40         120
570          37         121
580          41         115
590          39         121
600          34         127
610          40         122
620          40         129
630          41         133
640          40         135
650          38         124
660          40         121
670          37         128
680          37         120
690          40         120
700          43         120
710          40         131
720          36         136
730          38         128
740          38         121
750          42         121
760          40         127
770          35         120
780          39         127
790          36         133
800          40         127
810          41         121
820          41         120
830          41         130
840          42         130
850          42         123
860          41         124
870          36         128
880          38         126
890          40         119
900          40         128
910          36         123
920          34         128
930          37         129
940          38         119
950          40         131
960          40         126
970          37         124
980          37         123
990          39         131
1000          38         133
1010          38         131
1020          40         130
1030          40         121
1040          40         127
1050          37         124
1060          37         133
1070          39         131
1080          40         133
1090          41         128
1100          38         126
1110          41         113
1120          39         124
1130          38         123
1140          37         125
1150          38         125
1160          36         128
1170          34         125
1180          38         129
1190          36         125
1200          37         125
1210          39         115
1220          40         120
1230          34         124
1240          36         124
1250          36         115
1260          36         128
1270          41         112
1280          40         132
1290          38         130
1300          37         128
1310          39         134
1320          38         126
1330          38         123
1340          36         140
1350          36         132
1360          35         131
1370          36         130
1380          37         132
1390          39         129
1400          38         130
1410          41         128
1420          39         133
1430          36         129
1440          37         138
1450          34         131
1460          38         126
1470          37         131
1480          40         127
1490          40         123
1500          36         134
1510          39         126
1520          36         131
1530          35         128
1540          40         120
1550          39         132
1560          38         132
1570          41         126
1580          39         126
1590          39         119
1600          40         120
1610          35         130
1620          40         117
1630          41         133
1640          38         130
1650          37         128
1660          41         122
1670          36         133
1680          41         127
1690          36         125
1700          38         136
1710          37         125
1720          38         130
1730          37         133
1740          39         125
1750          40         130
1760          36         134
1770          38         131
1780          39         139
1790          38         136
1800          39         124
1810          36         129
1820          42         132
1830          41         129
1840          41         122
1850          40         132
1860          39         125
1870          43         135
1880          39         134
1890          42         126
1900          44         130
1910          39         130
1920          41         134
1930          36         130
1940          40         129
1950          41         134
1960          41         130
1970          40         130
1980          39         131
1990          39         128
2000          38         127
2010          41         125
2020          41         136
2030          41         121
2040          42         133
2050          40         131
2060          41         126
2070          43         135
2080          37         131
2090          40         130
2100          38         128
2110          37         131
2120          37         126
2130          43         126
2140          37         140
2150          38         143
2160          42         127
2170          42         131
2180          41         128
2190          42         126
2200          38         137
2210          42         132
2220          40         127
2230          42         126
2240          38         134
2250          41         131
2260          41         132
2270          43         124
2280          41         136
2290          37         136
2300          41         128
2310          42         131
2320          40         127
2330          42         129
2340          40         132
2350          40         123
2360          42         133
2370          41         125
2380          35         123
2390          39         134
2400          40         136
2410          37         140
2420          42         133
2430          40         134
2440          42         132
2450          41         130
2460          39         135
2470          38         124
2480          41         120
2490          41         123
2500          38         121
2510          40         132
2520          42         123
2530          39         133
2540          42         125
2550          36         117
2560          45         123
2570          41         133
2580          38         128
2590          42         124
2600          43         127
2610          43         130
2620          39         131
2630          38         142
2640          39         136
2650          41         136
2660          42         136
2670          43         125
2680          42         135
2690          44         121
2700          41         128
2710          42         122
2720          39         127
2730          42         129
2740          42         116
2750          43         125
2760          39         141
2770          42         128
2780          42         121
2790          40         132
2800          40         123
2810          43         130
2820          37         125
2830          40         127
2840          39         123
2850          39         126
2860          38         125
2870          41         123
2880          41         124
2890          38         127
2900          41         130
2910          38         125
2920          41         121
2930          41         121
2940          39         134
2950          40         132
2960          37         133
2970          40         124
2980          41         131
2990          40         123
3000          35         132
3010          37         125
3020          41         128
3030          37         123
3040          36         123
3050          37         130
3060          39         136
3070          41         127
3080          37         130
3090          40         123
3100          35         131
3110          38         132
3120          40         126
3130          40         124
3140          37         134
3150          37         132
3160          37         127
3170          38         139
3180          37         126
3190          39         126
3200          39         125
3210          36         129
3220          36         127
3230          42         123
3240          38         126
3250          35         131
3260          39         128
3270          39         129
3280          37         127
3290          38         129
3300          40         128
3310          38         132
3320          35         119
3330          39         116
3340          37         119
3350          35         125
3360          37         118
3370          41         124
3380          38         129
3390          38         124
3400          38         121
3410          39         127
3420          36         128
3430          37         129
3440          38         117
3450          38         120
3460          38         126
3470          38         121
3480          40         123
3490          35         130
3500          35         121
3510          38         124
3520          37         126
3530          37         129
3540          35         130
3550          40         128
3560          38         126
3570          40         126
3580          37         130
3590          38         124
3600          39         116
3610          34         118
3620          34         119
3630          36         118
3640          34         122
3650          38         117
3660          36         127
3670          37         115
3680          39         121
3690          36         123
3700          38         119
3710          39         120
3720          40         133
3730          37         126
3740          39         127
3750          38         124
3760          33         131
3770          37         126
3780          34         120
3790          37         125
3800          38         122
3810          39         128
3820          38         132
3830          41         118
3840          41         118
3850          37         124
3860          37         132
3870          37         122
3880          39         118
3890          35         127
3900          37         121
3910          39         122
3920          35         118
3930          34         118
3940          37         123
3950          36         121
3960          36         110
3970          35         122
3980          35         121
3990          36         118
4000          38         120
4010          35         123
4020          37         121
4030          33         120
4040          31         120
4050          36         121
4060          36         120
4070          39         119
4080          31         118
4090          33         124
4100          33         121
4110          36         128
4120          37         123
4130          32         124
4140          32         123
4150          38         117
4160          36         130
4170          33         131
4180          35         125
4190          35         133
4200          39         125
4210          37         132
4220          37         131
4230          38         122
4240          34         138
4250          39         136
4260          36         137
4270          37         136
4280          34         142
4290          38         131
4300          30         129
4310          35         126
4320          34         126
4330          37         123
4340          34         125
4350          30         124
4360          34         127
4370          34         123
4380          32         127
4390          35         126
4400          32         126
4410          33         128
4420          34         126
4430          35         121
4440          31         121
4450          35         115
4460          34         126
4470          36         123
4480          38         116
4490          38         123
4500          35         131
4510          34         130
4520          35         123
4530          36         118
4540          38         118
4550          36         122
4560          31         127
4570          38         122
4580          37         115
4590          33         121
4600          35         127
4610          37         125
4620          38         126
4630          36         130
4640          35         134
4650          37         123
4660          34         117
4670          40         120
4680          40         126
4690          36         125
4700          38         128
4710          36         129
4720          35         123
4730          40         131
4740          37         123
4750          38         125
4760          37         128
4770          40         130
4780          40         125
4790          38         122
4800          33         131
4810          37         129
4820          36         126
4830          37         117
4840          35         133
4850          38         132
4860          36         130
4870          37         133
4880          38         120
4890          40         125
4900          36         130
4910          40         131
4920          39         133
4930          37         127
4940          37         126
4950          44         123
4960          39         133
4970          42         126
4980          42         126
4990          38         128
5000          37         126
5010          36         133
5020          37         124
5030          39         122
5040          39         126
5050          39         129
5060          40         122
5070          42         132
5080          39         136
5090          41         127
5100          41         120
5110          39         134
5120          38         128
5130          39         120
5140          43         117
5150          42         110
5160          38         129
5170          40         120
5180          42         120
5190          38         117
5200          38         120
5210          39         130
5220          37         126
5230          39         125
5240          39         113
5250          40         124
5260          44         122
5270          43         121
5280          45         123
5290          42         127
5300          41         123
5310          41         125
5320          41         118
5330          35         133
5340          35         125
5350          45         126
5360          42         115
5370          41         123
5380          37         119
5390          38         127
5400          39         123
5410          37         130
5420          37         126
5430          40         119
5440          42         126
5450          42         126
5460          39         128
5470          40         127
5480          42         113
5490          39         116
5500          41         119
5510          38         121
5520          41         116
5530          43         123
5540          38         119
5550          39         116
5560          41         126
5570          38         119
5580          42         118
5590          38         117
5600          40         116
5610          38         120
5620          40         121
5630          37         119
5640          39         119
5650          36         118
5660          39         122
5670          39         119
5680          34         119
5690          37         119
5700          37         121
5710          33         129
5720          33         121
5730          39         121
5740          35         131
5750          36         126
5760          39         125
5770          39         118
5780          44         123
5790          42         129
5800          42         121
5810          39         127
5820          41         129
5830          36         124
5840          41         133
5850          44         123
5860          38         134
5870          38         126
5880          44         125
5890          42         115
5900          40         123
5910          40         118
5920          41         124
5930          37         133
5940          40         127
5950          36         136
5960          40         125
5970          41         124
5980          41         127
5990          37         137
6000          38         126
6010          41         120
6020          40         117
6030          40         113
6040          44         116
6050          40         118
6060          40         119
6070          38         120
6080          38         118
6090          42         122
6100          38         125
6110          40         115
6120          38         119
6130          36         122
6140          36         114
6150          36         124
6160          40         122
6170          41         122
6180          39         118
6190          40         125
6200          37         127
6210          42         122
6220          40         118
6230          41         116
6240          36         121
6250          35         119
6260          38         112
6270          39         115
6280          38         119
6290          36         117
6300          37         114
6310          38         117
6320          38         123
6330          37         122
6340          37         118
6350          37         121
6360          37         135
6370          36         129
6380          38         117
6390          38         115
6400          39         114
6410          40         124
6420          40         125
6430          38         124
6440          41         125
6450          40         121
6460          39         124
6470          37         129
6480          42         122
6490          44         123
6500          39         120
6510          38         122
6520          37         119
6530          41         119
6540          38         125
6550          36         124
6560          35         122
6570          39         124
6580          39         119
6590          33         122
6600          42         127
6610          37         125
6620          37         127
6630          41         122
6640          38         126
6650          36         119
6660          34         126
6670          38         124
6680          37         123
6690          36         130
6700          34         121
6710          37         127
6720          37         113
6730          40         115
6740          40         120
6750          37         127
6760          40         119
6770          37         136
6780          41         125
6790          36         124
6800          39         115
6810          41         126
6820          37         118
6830          39         127
6840          36         126
6850          39         125
6860          38         125
6870          36         123
6880          38         118
6890          33         125
6900          37         126
6910          39         120
6920          36         126
6930          37         125
6940          40         127
6950          39         125
6960          40         133
6970          40         129
6980          39         127
6990          39         139
7000          38         120
7010          39         125
7020          39         126
7030          41         127
7040          38         125
7050          38         127
7060          38         131
7070          40         121
7080          40         136
7090          40         132
7100          38         128
7110          35         138
7120          40         130
7130          41         129
7140          43         131
7150          39         133
7160          41         134
7170          36         135
7180          38         136
7190          43         140
7200          40         130
7210          40         127
7220          39         135
7230          42         133
7240          41         126
7250          40         122
7260          41         127
7270          38         138
7280          40         129
7290          38         131
7300          38         126
7310          40         127
7320          40         131
7330          38         132
7340          38         128
7350          41         126
7360          38         128
7370          37         120
7380          45         129
7390          44         134
7400          41         125
7410          42         127
7420          42         118
7430          41         133
7440          39         124
7450          41         125
7460          40         121
7470          42         124
7480          39         121
7490          39         129
7500          41         131
7510          43         116
7520          39         124
7530          39         127
7540          40         136
7550          40         126
7560          37         124
7570          38         123
7580          39         126
7590          38         130
7600          36         135
7610          38         131
7620          35         128
7630          37         126
7640          39         124
7650          37         122
7660          42         126
7670          37         128
7680          38         119
7690          35         121
7700          40         126
7710          40         121
7720          37         129
7730          36         127
7740          35         132
7750          35         128
7760          38         121
7770          38         122
7780          36         130
7790          37         130
7800          39         129
7810          36         124
7820          39         131
7830          37         131
7840          38         126
7850          40         121
7860          34         126
7870          37         122
7880          35         130
7890          34         127
7900          37         125
7910          38         128
7920          34         130
7930          35         128
7940          36         131
7950          36         128
7960          38         125
7970          39         131
7980          41         128
7990          40         124
8000          40         129
8010          37         127
8020          32         132
8030          32         125
8040          34         123
8050          35         123
8060          33         118
8070          39         124
8080          38         121
8090          33         124
8100          38         125
8110          40         134
8120          40         122
8130          35         132
8140          37         134
8150          40         129
8160          41         126
8170          39         129
8180          39         131
8190          39         131
8200          38         128
8210          35         119
8220          36         124
8230          32         130
8240          36         122
8250          35         135
8260          39         122
8270          38         119
8280          38         123
8290          41         135
8300          37         135
8310          35         128
8320          36         131
8330          41         126
8340          40         126
8350          35         127
8360          35         120
8370          33         134
8380          37         133
8390          36         134
8400          37         132
8410          34         137
8420          36         124
8430          35         134
8440          38         131
8450          38         125
8460          38         119
8470          37         124
8480          38         128
8490          36         128
8500          34         127
8510          37         130
8520          38         127
8530          38         136
8540          36         130
8550          37         133
8560          32         131
8570          38         126
8580          39         119
8590          38         125
8600          35         125
8610          34         134
8620          32         136
8630          36         130
8640          36         125
8650          37         131
8660          32         132
8670          34         120
8680          35         117
8690          35         125
8700          35         125
8710          37         126
8720          35         119
8730          36         123
8740          35         115
8750          34         125
8760          39         127
8770          37         123
8780          32         129
8790          32         121
8800          38         131
8810          37         127
8820          35         131
8830          35         129
8840          39         131
8850          38         127
8860          38         124
8870          35         123
8880          33         135
8890          37         131
8900          35         123
8910          39         122
8920          37         127
8930          38         124
8940          36         128
8950          37         115
8960          36         133
8970          30         133
8980          36         130
8990          35         127
9000          34         123
9010          35         120
9020          38         130
9030          35         122
9040          36         121
9050          39         114
9060          40         125
9070          37         127
9080          38         132
9090          39         125
9100          38         126
9110          36         125
9120          40         126
9130          39         127
9140          39         126
9150          37         125
9160          40         120
9170          37         134
9180          35         125
9190          36         129
9200          35         128
9210          34         128
9220          37         126
9230          38         132
9240          41         131
9250          35         125
9260          38         132
9270          39         126
9280          38         127
9290          40         135
9300          38         120
9310          39         122
9320          38         130
9330          37         116
9340          37         117
9350          36         119
9360          37         133
9370          34         133
9380          35         125
9390          30         130
9400          34         129
9410          34         127
9420          39         126
9430          37         116
9440          35         129
9450          36         125
9460          35         122
9470          37         132
9480          33         133
9490          30         132
9500          34         129
9510          31         131
9520          30         135
9530          35         125
9540          36         128
9550          36         129
9560          32         136
9570          35         128
9580          36         130
9590          38         127
9600          38         122
9610          34         123
9620          37         131
9630          37         136
9640          35         118
9650          35         119
9660          35         122
9670          36         127
9680          34         128
9690          34         129
9700          34         128
9710          36         122
9720          32         119
9730          37         123
9740          37         124
9750          34         124
9760          33         126
9770          34         123
9780          34         130
9790          36         121
9800          35         125
9810          38         122
9820          36         121
9830          38         125
9840          38         124
9850          37         127
9860          37         123
9870          36         126
9880          35         121
9890          37         117
9900          38         120
9910          38         124
9920          39         122
9930          39         114
9940          36         121
9950          36         118
9960          36         127
9970          35         126
9980          37         125
9990          35         126
10000          34         125
