Time   C(t)   
ps   
0           1           1  1.29374e-09   0.0438758
10    0.565351    0.722603    0.388684   0.0234016
20    0.531968    0.701297     1.61982  0.00292746
30    0.506802    0.685236     1.15408  0.00229409
40    0.486086    0.672015     6.85909  0.00201436
50    0.466515    0.659524     4.62046  0.00162089
60    0.453668    0.651326     1.61252  0.00144036
70    0.437708    0.641139     4.00294  0.00124095
80    0.428849    0.635486     2.61421  0.00109501
90    0.415808    0.627162     1.76498  0.00117444
100    0.405361    0.620495     1.84174  0.000884712
110    0.398113     0.61587     3.99789  0.000850837
120    0.388344    0.609635     3.38097  0.000894265
130    0.380228    0.604455     1.53004  0.000692764
140    0.374489    0.600792     1.99172  0.00081411
150    0.363946    0.594064     3.22436  0.000821489
160    0.358059    0.590307    0.834324  0.000565349
170    0.352639    0.586847    -1.24785  0.00077078
180    0.342643    0.580468     3.53132  0.000603737
190    0.340564    0.579141     1.60251  0.000346555
200    0.335712    0.576045     1.67806  0.000660464
210    0.327355    0.570711     3.14414  0.00046864
220    0.326339    0.570063     2.83425  0.000337085
230    0.320613    0.566408     1.90939  0.000397995
240    0.318379    0.564983     2.98761  0.000386924
250    0.312875    0.561469    0.905888  0.000793293
260    0.302514    0.554857     2.98844  0.000497615
270    0.302922    0.555118     2.90928  0.000128999
280    0.299934     0.55321    0.132887  0.000323491
290    0.296452    0.550989    0.594639  0.000312001
300    0.293694    0.549228    -1.25659  0.000489227
310    0.286668    0.544744    -2.56629  0.000459523
320    0.284503    0.543362     -2.3367  0.00038749
330    0.278918    0.539798    -1.02526  0.000455283
340    0.275397    0.537551     0.82529  0.00029134
350    0.273091    0.536079    -1.95035  9.62138e-05
360    0.273473    0.536323    -1.49025  0.000225145
370    0.268588    0.533206    -0.10326  0.00039088
380    0.265656    0.531334    0.745596  0.000281328
390    0.262962    0.529615    -1.02722  0.000398678
400    0.257682    0.526245    -2.56787  8.56936e-05
410    0.261248    0.528521    -3.88255  0.000104821
420    0.255586    0.524907   -0.797922  0.000548318
430    0.250282    0.521522    -1.64527  0.000611167
440    0.243362    0.517106    -4.03448  0.000297364
450    0.244334    0.517726   -0.876185  6.34559e-05
460    0.242093    0.516296    -2.18642  0.000131507
470    0.241704    0.516048    -1.03106  0.000113287
480    0.239827     0.51485    0.971729  0.00034296
490    0.234845     0.51167    -1.33899  0.00034351
500    0.232957    0.510465    -1.80195  0.00017034
510    0.231438    0.509496   -0.645535  0.000127188
520    0.230413    0.508842    -1.80376  0.000177317
530    0.227892    0.507233    -3.34517  0.000208767
540    0.226238    0.506177   -0.647266  -2.79248e-05
550     0.22845    0.507589    -2.65382  0.00028464
560    0.220545    0.502544    -2.34385  0.000422302
570    0.220004    0.502199    -1.80443  0.000110522
580    0.218335    0.501133     -3.5029  0.000236066
590    0.215283    0.499186    0.892335  0.000449846
600    0.209338    0.495391     -1.4974  0.000406686
610    0.207149    0.493995    -1.11173  0.00030083
620    0.203321    0.491551     -1.4959  0.000251044
630    0.202128     0.49079    -3.27082  0.000100467
640    0.201312    0.490269    -2.34626  9.43713e-05
650    0.200241    0.489586   -0.573369  0.000164057
660    0.198031    0.488175    -4.42806  0.000214908
670    0.195943    0.486842    -4.04359  7.61531e-05
680    0.196508    0.487203    -2.42482  0.000184172
690    0.192259    0.484492   -0.883564  0.000203329
700    0.192441    0.484608    -2.65818  0.000178619
710    0.188687    0.482212    -4.81689  0.000274105
720    0.186959    0.481109    -4.27725  0.000287546
730    0.182936    0.478541     -4.2774  0.00039635
740    0.179032     0.47605    -2.27244  0.000116623
750    0.180604    0.477053    -3.43081  -2.96734e-05
760    0.179626    0.476429    -1.81068  0.000200208
770    0.176599    0.474497    -2.42701  0.000302889
780    0.173568    0.472562    -3.73822  7.29702e-05
790     0.17514    0.473566    -2.96845  4.77426e-05
800    0.172613    0.471953    -4.04638  0.000253012
810     0.17008    0.470336    -4.43092  0.000170046
820    0.169212    0.469783    -3.73807  0.00014476
830    0.167185    0.468489    -3.19843  9.99592e-05
840    0.167213    0.468507     -2.1208  0.000100276
850    0.165179    0.467209     -3.1991  0.000197172
860    0.163269     0.46599    -3.66206  0.000171781
870    0.161743    0.465016    -2.96966  0.000120424
880    0.160861    0.464453    -4.20275  0.000211401
890    0.157515    0.462318    -4.27853  0.000179303
900    0.157275    0.462164    -4.27951  0.000127949
910    0.154957    0.460685    -1.34885  0.000121634
920    0.154842    0.460612    -3.66251  0.00023258
930    0.150305    0.457716    -4.04706  0.000271917
940    0.149404    0.457141    -5.28121  -0.000170511
950    0.153715    0.459892    -1.89113  -0.00010535
960    0.151511    0.458485     -2.3516  9.65782e-05
970    0.151784     0.45866     -4.1263  0.000129624
980    0.148918    0.456831    -2.97116  0.000457044
990    0.142643    0.452826    -2.81456  0.000346477
1000    0.141989    0.452408     -1.0422  3.26179e-05
1010     0.14199    0.452409   -0.272512  0.000131246
1020    0.139364    0.450733     -2.5079  8.53755e-05
1030    0.140283     0.45132    -3.12604  1.99191e-05
1040    0.138966    0.450479    -3.43382  3.96222e-05
1050     0.13949    0.450814    -4.82164   1.342e-05
1060    0.138697    0.450308    -5.74793  0.00025117
1070    0.134467    0.447608    -3.74304  0.000277991
1080    0.133137    0.446759    -4.05195  0.000232419
1090    0.129819    0.444641     -4.2823  0.000246099
1100    0.128215    0.443618     -4.6697  5.43341e-05
1110    0.128732    0.443948    -4.05443  -4.50693e-05
1120    0.129117    0.444193    -2.74383  -7.17774e-05
1130    0.130167    0.444864    -2.89832   9.453e-05
1140    0.127226    0.442987    -2.35838  1.45599e-05
1150    0.129876    0.444678    -1.43389  8.23736e-06
1160    0.127061    0.442882    -2.59061  0.000114806
1170     0.12758    0.443213    -3.36218  -1.18092e-05
1180    0.127298    0.443032    -4.13262  0.000262632
1190    0.122327     0.43986    -1.81927  0.000182525
1200    0.123647    0.440703    -3.44052  5.57907e-05
1210    0.121212    0.439148    -4.05647  0.000183364
1220     0.11998    0.438362    -3.67162  0.000170403
1230    0.117804    0.436973    -3.98031  0.000190936
1240    0.116161    0.435925    -3.05357  -0.000132175
1250    0.120447     0.43866    -3.36324  -0.000111892
1260    0.118399    0.437353    -3.43984  8.34212e-05
1270    0.118779    0.437595    -4.75158  -2.44878e-05
1280    0.118889    0.437666    -3.82582  9.3136e-06
1290    0.118592    0.437477    -4.13548  2.5332e-06
1300    0.118838    0.437633    -5.21484  -4.2025e-06
1310    0.118676     0.43753    -2.97877  8.4101e-05
1320    0.117156     0.43656    -3.67298  2.29653e-05
1330    0.118217    0.437237      -2.209  9.56096e-06
1340    0.116965    0.436438    -3.44218  0.000336767
1350    0.111482    0.432939    -1.66786   0.0002622
1360    0.111721    0.433091    -1.82228  9.90976e-05
1370      0.1095    0.431674    -2.05338  8.54924e-05
1380    0.110011       0.432    -1.28279  9.95621e-05
1390    0.107509    0.430403    -1.66808  1.04599e-05
1400    0.109802    0.431866    -1.12935  -0.000195239
1410    0.111413    0.432895    -1.66982  5.86372e-05
1420    0.108629    0.431118    -1.74725  0.000209934
1430    0.107215    0.430215    -1.82439  0.00016225
1440    0.105384    0.429047    -1.97873  0.000121215
1450     0.10479    0.428668    -1.43879  5.25173e-05
1460    0.104334    0.428376    0.641959  0.000107963
1470    0.102631     0.42729   -0.976811  -5.80043e-05
1480    0.105494    0.429117    -1.44082  -1.6281e-05
1490    0.102957    0.427498   -0.824123  0.000351141
1500   0.0984709    0.424635    -1.90137  3.92042e-05
1510    0.102173    0.426997     -3.9086  -5.75889e-05
1520   0.0996227     0.42537    -2.51935  0.000109034
1530    0.099992    0.425606    -2.98313  -9.27512e-05
1540    0.101478    0.426554    -2.21322  0.000151426
1550   0.0969635    0.423673    -4.75632  0.000151456
1560   0.0984486    0.424621    -2.83067  -2.97505e-05
1570   0.0975585    0.424053    -4.29487  0.000159154
1580   0.0952655    0.422589    -2.67588  5.42477e-05
1590   0.0964735     0.42336    -2.75407  0.000138869
1600   0.0924881    0.420817    -2.75256  0.000342751
1610   0.0896185    0.418985    -2.75286  -8.31187e-06
1620   0.0926544    0.420923    -2.98547  6.95664e-05
1630   0.0882272    0.418097    -2.90705  0.000189227
1640   0.0888698    0.418507    -1.44391  -6.43317e-05
1650   0.0895138    0.418918    -2.36885  4.16182e-05
1660   0.0880375    0.417976   -0.364704  0.00024693
1670   0.0845752    0.415766    -1.75207  0.000169411
1680   0.0846492    0.415814    -1.05891  9.90577e-05
1690   0.0825941    0.414502   0.0978769  0.000198657
1700   0.0806761    0.413278   -0.287344  0.000284537
1710   0.0769033     0.41087   -0.440408  -9.24502e-05
1720   0.0825251    0.414458   0.0196131  -0.00014917
1730   0.0798867    0.412774    -1.21348  0.000428389
1740   0.0739573     0.40899    0.484602  0.000336284
1750    0.073161    0.408482   -0.364177  5.82445e-05
1760   0.0727924    0.408247    0.329205  3.69091e-05
1770   0.0724229    0.408011     1.56155  0.000180497
1780   0.0691825    0.405943     2.02481  0.000331658
1790   0.0657897    0.403777    0.792011  7.34936e-05
1800   0.0677126    0.405005      1.0204  3.79644e-05
1810   0.0650304    0.403293    -1.06004  0.00013154
1820   0.0650818    0.403326    -1.05914  -3.40253e-05
1830   0.0657109    0.403727   -0.289152  -0.000106354
1840   0.0672089    0.404683   -0.598592  0.000219122
1850   0.0613285     0.40093    0.558951  0.000349641
1860   0.0602161     0.40022   -0.597086  0.000191174
1870    0.057505     0.39849    0.713522  0.000177016
1880   0.0566758    0.397961     1.32992  1.0285e-05
1890   0.0572993    0.398359   -0.520177  1.76886e-05
1900    0.056322    0.397735     2.48558  2.49173e-05
1910   0.0568009    0.398041    0.787871  6.15813e-05
1920   0.0550904    0.396949     1.94534  0.000185848
1930    0.053084    0.395668     2.56204  4.72197e-05
1940    0.054146    0.396346     1.63612  -3.72864e-06
1950   0.0531586    0.395716     2.56256  6.94986e-05
1960    0.052756    0.395459    0.789151  0.000253325
1970   0.0480921    0.392483    0.790506  0.000158085
1980   0.0495943    0.393441    -0.36749  -2.5221e-05
1990   0.0485965    0.392804     1.17392  0.000107274
2000   0.0474488    0.392072    -0.52221  5.5854e-05
2010   0.0474794    0.392092   -0.137065  -1.04623e-05
2020   0.0476581    0.392206   -0.138646  0.000174541
2030   0.0439886    0.389864    -1.67953  0.000226612
2040   0.0431258    0.389313    0.478128  0.000271871
2050   0.0385512    0.386393    0.709908  0.000101472
2060   0.0410964    0.388018   -0.137743  -8.37786e-05
2070   0.0402267    0.387463    -1.83478  -8.42176e-05
2080   0.0427807    0.389093   -0.680093  -3.9468e-05
2090   0.0410161    0.387967    -1.06531  0.000243897
2100   0.0379028     0.38598   -0.986975  2.7621e-05
2110   0.0404637    0.387614     1.40118  5.05025e-05
2120   0.0368927    0.385335   -0.140679  0.000140181
2130   0.0376601    0.385825    0.244843  8.82756e-05
2140   0.0351272    0.384208    0.321601  0.000193486
2150   0.0337903    0.383355   -0.526728  3.60591e-05
2160    0.034406    0.383748     2.01743  3.62879e-05
2170   0.0330646    0.382892    0.630063  0.000202192
2180   0.0303622    0.381167   -0.681072  0.000134666
2190   0.0303713    0.381173     2.17057  0.000112495
2200   0.0281123    0.379731   -0.449894  -8.52449e-06
2210   0.0305418    0.381282   0.0879386  -2.34091e-05
2220   0.0285805     0.38003     1.78444  0.000135661
2230   0.0278285     0.37955     1.16805  7.52914e-05
2240   0.0270747    0.379069     1.09182  9.0706e-05
2250   0.0260144    0.378392     1.47591  0.000197618
2260   0.0231223    0.376547     2.09381  -3.85411e-05
2270   0.0267852    0.378884     1.32126  2.28908e-05
2280   0.0226645    0.376254    0.936945  0.000213712
2290    0.022511    0.376156     2.32409  6.89897e-05
2300   0.0212847    0.375374     2.70938  0.00022251
2310   0.0180608    0.373316     3.01747  0.000192229
2320   0.0174401     0.37292     1.08978  6.98466e-05
2330   0.0166639    0.372425     3.09475  0.00013932
2340   0.0146537    0.371142    0.165599  1.62481e-05
2350   0.0163389    0.372217     2.24733  -6.06707e-05
2360   0.0158671    0.371916     3.48005  8.58521e-06
2370   0.0161672    0.372108     3.24804  0.000155757
2380    0.012752    0.369928     1.93856  2.41656e-05
2390   0.0156839    0.371799     2.78554  -0.000169404
2400   0.0161401     0.37209     1.24337  0.00021078
2410   0.0114683    0.369109     1.32156  0.000117622
2420   0.0137876    0.370589     1.16699  -0.000154321
2430   0.0145547    0.371079     1.78249  0.000102646
2440   0.0117347    0.369279    0.704864  0.000110496
2450   0.0123448    0.369668     1.24375  0.000134477
2460  0.00904515    0.367562     1.24353  4.84152e-05
2470   0.0113765     0.36905     2.01389  9.68724e-06
2480  0.00885141    0.367439      0.3961  -4.55923e-05
2490   0.0122883    0.369632    0.625547  -0.000147531
2500    0.011802    0.369322   -0.453509  4.08012e-05
2510   0.0114723    0.369111    0.779665  3.30403e-05
2520   0.0111412      0.3689    0.857175  8.05052e-05
2530  0.00986221    0.368084     1.31976  0.000104365
2540  0.00905393    0.367568     1.55071  -6.95034e-05
2550   0.0112523    0.368971     3.01506  -2.19218e-05
2560  0.00949237    0.367848     1.01114  9.68419e-05
2570  0.00931543    0.367735     1.78136  0.000256216
2580  0.00436806    0.364577      1.7061  0.000224737
2590  0.00482069    0.364866      2.9386  2.5006e-06
2600  0.00431804    0.364546     3.70972  5.03414e-05
2610  0.00381386    0.364224       1.704  0.000162383
2620  0.00107038    0.362473     1.24157  0.000194674
2630  -7.96179e-05    0.361739    0.625244  -0.000181351
2640  0.00469741    0.364788     2.24326  -4.50063e-05
2650  0.000820508    0.362313     1.85782  0.000219468
2660  0.000308058    0.361986     0.39241  0.000107641
2670  -0.0013323    0.360939     1.85842  9.97885e-05
2680  -0.00168771    0.360713     2.08824  2.7516e-05
2690  -0.00188262    0.360588     1.24067  -0.000101668
2700  0.000345649     0.36201     2.08862  3.41119e-06
2710  -0.00195085    0.360545     1.62656  0.000116543
2720  -0.00198522    0.360523    0.623288  9.26813e-05
2730  -0.00380447    0.359362     1.31825  -0.00012656
2740  0.000545978    0.362138    -1.15103  -0.000224105
2750  0.000677616    0.362222    -1.99838  3.09599e-06
2760  0.000484058    0.362099    -1.22756  3.5709e-05
2770  -3.65635e-05    0.361766   0.0047812  6.84714e-05
2780  -0.00088537    0.361225     -2.1525  0.000101365
2790  -0.00206385    0.360473    -1.69052  0.000118014
2800  -0.00324565    0.359718    -2.61523  7.73157e-05
2810  -0.00361017    0.359486     1.00791  -0.000144232
2820  -0.000361012    0.361559    0.235657  2.83869e-05
2830  -0.00417791    0.359123   -0.225568  0.000110363
2840  -0.00256827    0.360151     1.31531  -8.69423e-05
2850  -0.00243906    0.360233   -0.534859  -0.000120337
2860  -0.000161524    0.361687    -1.38304  -2.9524e-05
2870  -0.00184858     0.36061    -1.30605  9.43741e-05
2880  -0.00204901    0.360482     1.39222  -7.11821e-05
2890  -0.00042494    0.361519    0.621028  -0.000162628
2900  0.00120356    0.362558     2.00892  -3.83053e-05
2910  0.000341166    0.362007     1.54619  0.000186362
2920  -0.00252368    0.360179      0.3894  6.99517e-05
2930  -0.00105787    0.361115     1.00632  -0.000146775
2940  0.000411818    0.362053     2.62427  -9.69914e-05
2950  0.000881961    0.362353     2.31558  3.67036e-05
2960  -0.000322254    0.361584    0.697185  -0.000147884
2970  0.00383964     0.36424    0.541184  -7.22912e-05
2980  0.00112357    0.362507     1.85277  0.000221499
2990  -0.00059034    0.361413    0.772587  9.5803e-05
3000  -0.00079249    0.361284     1.62114  6.24545e-05
3010  -0.00183943    0.360616   -0.460812  8.79089e-05
3020  -0.00255067    0.360162   -0.152274  0.000155871
3030  -0.00495686    0.358626    0.773716  -4.7173e-05
3040  -0.00160721    0.360764  -0.0751387  -2.14291e-05
3050  -0.00452827      0.3589     1.15818  8.85323e-05
3060  -0.00337785    0.359634   0.0785266  -0.000242865
3070  0.000329025       0.362    -1.61964  -2.17723e-05
3080  -0.00294241    0.359912    -1.31095  6.30125e-05
3090  -0.000931226    0.361195    -1.46514  -8.17239e-05
3100  -0.00130793    0.360955   -0.540055  -1.36541e-05
3110  -0.000658143     0.36137    0.461866  8.06942e-05
3120  -0.00292181    0.359925    -1.00211  6.35402e-05
3130  -0.00192895    0.360559     1.38688  1.2377e-05
3140  -0.00316935    0.359767    0.231139  0.00015003
3150  -0.00492954    0.358644     1.00218  0.000124542
3160  -0.0056602    0.358177     1.00083  0.000150898
3170  -0.0079475    0.356718    0.847764  0.000116637
3180  -0.00799294    0.356689     1.38725  -7.34166e-05
3190  -0.00647917    0.357655     2.08018  -1.27949e-05
3200  -0.00773704    0.356852     1.92622  4.77777e-05
3210  -0.00743472    0.357045    0.306995  -2.15762e-05
3220  -0.00730551    0.357127      1.0012  -7.39232e-05
3230  -0.00595626    0.357988      1.2314  -0.000152577
3240  -0.00425398    0.359075     1.30869  -4.45722e-06
3250  -0.00586711    0.358045    0.923768  8.27956e-05
3260  -0.00590989    0.358018     1.46326  -2.20011e-05
3270  -0.00542709    0.358326     1.38567  9.20696e-05
3280  -0.00775128    0.356843     3.15924  4.81863e-05
3290  -0.00639082    0.357711    0.383451  -9.22493e-05
3300  -0.00590629     0.35802     1.38537  4.3825e-06
3310  -0.00647847    0.357655     2.54194  1.31545e-05
3320  -0.00616938    0.357852     1.30876  -1.32689e-05
3330  -0.00621309    0.357824     1.77074  -8.41942e-05
3340  -0.0044855    0.358927     2.84987  0.000155175
3350  -0.0093166    0.355844     2.85085  4.13731e-06
3360  -0.00456825    0.358874     2.77214  -0.00012857
3370  -0.0067452    0.357485     2.38744  -4.9307e-05
3380  -0.0035821    0.359504      2.0777  -0.000120447
3390  -0.00433626    0.359022     2.15514  -4.06635e-05
3400  -0.00276883    0.360023     1.38477  7.57514e-05
3410  -0.00585128    0.358055     2.31068  3.08152e-05
3420  -0.00338514    0.359629    0.536516  -0.000193128
3430  -0.00198872     0.36052     0.38187  -1.3974e-05
3440  -0.00310566    0.359808    0.613801  -2.32106e-05
3450  -0.00152451    0.360817    0.844452  1.3012e-05
3460  -0.0033659    0.359642   -0.156716  3.98837e-05
3470  -0.00232218    0.360308     2.38722  -8.64309e-05
3480  -0.00163728    0.360745     1.53964  -9.57796e-05
3490  -0.000406588     0.36153     3.85142  -0.000159565
3500  0.00155402    0.362781     1.84554  3.59798e-06
3510  -0.000478548    0.361484     2.07778  0.000121652
3520  -0.000879019    0.361229    0.998269  -8.75377e-05
3530  0.00127221    0.362602     3.84968  -0.000133272
3540  0.00178643     0.36293     1.69067  -5.15111e-05
3550  0.00230243    0.363259     1.69143  -2.41912e-05
3560  0.00227025    0.363239     2.53975  2.15575e-05
3570  0.00187128    0.362984     3.08007  -1.51484e-05
3580  0.00257322    0.363432     2.84791  4.01055e-05
3590  0.00106917    0.362472     1.84562  -1.52581e-05
3600  0.00287839    0.363627     2.38526  3.4252e-06
3610  0.00100066    0.362428     1.15194  3.08945e-05
3620  0.00226049    0.363232     1.69097  -7.98841e-05
3630  0.00259835    0.363448     3.00181  3.1079e-05
3640  0.00163891    0.362836     2.38518  -0.000117552
3650  0.00494938    0.364948     3.61813  -0.000257142
3660  0.00678176    0.366118     2.15333  -0.000118287
3670  0.00731513    0.366458     4.92904  -0.000128089
3680  0.00934354    0.367753     2.77003  -0.000203177
3690   0.0113787    0.369052    0.457424  -0.000110197
3700   0.0115475    0.369159     2.23016  0.000217532
3710  0.00702804    0.366275     0.84272  0.000105133
3720  0.00944483    0.367817     1.99891  6.83897e-05
3730  0.00566025    0.365402    0.996989  0.000115233
3740  0.00714016    0.366347    0.996914  -0.00011048
3750  0.00786984    0.366812     2.84656  -8.25411e-05
3760  0.00879098      0.3674     2.22918  4.03039e-05
3770  0.00706377    0.366298     2.84581  0.00019194
3780  0.00495219     0.36495     2.46141  -6.39301e-05
3790  0.00834237    0.367114      2.1519  -4.46631e-05
3800  0.00584545     0.36552     2.61418  8.81144e-05
3810  0.00658008    0.365989     4.30956  2.18751e-05
3820  0.00540795    0.365241     2.38322  2.66405e-06
3830   0.0065268    0.365955     3.15291  0.000156056
3840  0.00228683    0.363249     2.61403  0.000117769
3850  0.00417142    0.364452     3.38454  -6.38858e-05
3860  0.00356455    0.364065     2.53682  5.11679e-05
3870  0.00314806    0.363799     3.38485  2.24494e-05
3880  0.00311556    0.363778     3.15299  -6.432e-05
3890  0.00443446     0.36462     4.23189  0.000119289
3900  0.000729776    0.362255     3.92366  0.000196745
3910  0.000499561    0.362109     2.61365  2.30495e-05
3920  0.000268786    0.361961     3.07555  -4.48802e-05
3930  0.00139717    0.362681     2.38149  -0.00014225
3940  0.00311378    0.363777     3.61512  0.000120564
3950  -0.00101411    0.361142      2.6138  0.000266977
3960  -0.00222575    0.360369     3.46077  1.37522e-05
3970  -0.00128916    0.360967      2.6889  8.25645e-05
3980  -0.00387704    0.359315     2.30368  0.000121818
3990  -0.00372551    0.359412     3.53685  -0.000152813
4000  -0.000820788    0.361266     3.76698  0.000240787
4010  -0.00854125    0.356339     2.99774  0.000230838
4020  -0.00543755    0.358319     2.61056  -0.000162687
4030  -0.00528752    0.358415     2.61086  0.000113627
4040  -0.00771009    0.356869     2.84219  0.000173285
4050  -0.00875321    0.356203     3.30492  -0.000213299
4060  -0.00344412    0.359592     3.99763  -3.44505e-05
4070  -0.0080642    0.356643     3.61354  0.00019378
4080  -0.00731971    0.357118     2.53388  -7.4591e-05
4090  -0.00657238    0.357595     3.22734  -5.485e-05
4100  -0.00622271    0.357818     1.83862  0.000105159
4110  -0.00867555    0.356253     1.45325  2.50248e-05
4120  -0.00672321    0.357499     1.76156  -0.000175489
4130  -0.00516578    0.358493     3.45678  0.000135908
4140  -0.00944137    0.355764      2.0707  0.000145972
4150  -0.00808521     0.35663     2.22459  -0.000115635
4160  -0.00712867     0.35724     1.68503  -0.000126186
4170  -0.00556148     0.35824     1.68502  -4.97086e-06
4180  -0.00702926    0.357304     1.29973  -1.54052e-05
4190  -0.00525338    0.358437     1.60639  -0.000177886
4200  -0.00347153    0.359574     1.99228  -6.64308e-05
4210  -0.00392477    0.359285     2.68634  2.49851e-05
4220  -0.00397123    0.359255     1.53038  4.5548e-05
4230  -0.00483572    0.358703     1.53076  -0.000230857
4240  0.000645909    0.362202     2.84023  -0.000169544
4250  -0.00144484    0.360868     1.68427  4.4997e-05
4260  -0.00025403    0.361628     3.07232  0.000168953
4270  -0.00482391    0.358711     1.99349  3.50039e-05
4280  -0.000954107    0.361181    0.681977  -0.000119095
4290   -0.002442    0.360231     1.76201  -0.000244158
4300  0.00392906    0.364297     1.76096  -0.00024432
4310  0.00244439     0.36335     1.37521  0.000138344
4320  0.00116219    0.362531     3.30267  0.000149254
4330  -0.000540701    0.361445     2.14625  6.6384e-05
4340  -0.000165493    0.361684      1.9147  -0.000110676
4350  0.00167282    0.362857     1.91402  -0.000215524
4360  0.00414499    0.364435     1.83726  -0.000100986
4370  0.00369254    0.364146     0.52718  9.78063e-05
4380  0.00218886    0.363187     1.06682  -0.000133242
4390  0.00635738    0.365847    0.756852  -0.000217488
4400  0.00653861    0.365963     2.06723  -8.14507e-05
4410   0.0079864    0.366887     1.14102  1.35257e-05
4420   0.0062681     0.36579     1.75855  6.62346e-05
4430  0.00666171    0.366041     2.06656  -6.0652e-05
4440  0.00748114    0.366564     1.68111  -6.08318e-05
4450  0.00787834    0.366818     3.68525  3.47424e-05
4460  0.00678629    0.366121     2.06648  -1.85969e-05
4470  0.00825028    0.367055     2.83617  0.000238013
4480  0.00202603    0.363083     2.91519  0.00017395
4490  0.00477128    0.364835     1.52616  -0.000167779
4500  0.00538161    0.365224  -0.0923813  4.62811e-05
4510  0.00384566    0.364244     1.60345  0.000143125
4520   0.0025191    0.363397    0.215706  -9.35522e-05
4530   0.0057167    0.365438   -0.170192  -0.000179911
4540  0.00611732    0.365694     1.60247  -4.01288e-05
4550  0.00651928     0.36595    0.831049  3.11467e-06
4560  0.00605502    0.365654   -0.324235  -9.4729e-05
4570  0.00841386     0.36716    -1.09664  -0.000225424
4580   0.0105635    0.368531    0.290882  4.63045e-05
4590  0.00748777    0.366568   -0.171397  0.000231676
4600  0.00592997    0.365574    0.368469  0.000134188
4610  0.00480402    0.364856   -0.247627  0.000101848
4620  0.00389301    0.364274   0.0606077  0.000102245
4630  0.00275912    0.363551    0.754066  -1.84522e-05
4640  0.00426206     0.36451    0.754593  3.68484e-05
4650  0.00202215     0.36308     0.13684  0.000125005
4660  0.00176196    0.362914    0.985318  -8.46074e-05
4670   0.0037143     0.36416     1.98694  4.83428e-05
4680  0.000795105    0.362297     2.68122  4.80766e-05
4690  0.00275277    0.363547     1.36986  -4.03483e-05
4700  0.00160207    0.362812    0.753012  0.000115318
4710  0.000446421    0.362075     2.44937  0.00023866
4720  -0.00317113    0.359766     1.98716  0.00020575
4730  -0.00366859    0.359448    0.291787  -7.35333e-05
4740  -0.00170046    0.360704    0.367868  3.87746e-05
4750  -0.00444408    0.358953    0.753012  0.000274878
4760  -0.00719802    0.357196    0.831125  -6.04256e-06
4770  -0.00432323    0.359031    0.829997  -0.000152427
4780  -0.00414947    0.359141     1.75478  1.65727e-05
4790  -0.00465468    0.358819     2.83414  7.32741e-05
4800  -0.00561495    0.358206     2.44899  0.000118962
4810  -0.00703393    0.357301     1.52308  -6.28001e-05
4820  -0.00435895    0.359008     2.75595  -0.000153924
4830  -0.00395544    0.359265     2.75647  -6.12428e-06
4840  -0.00423647    0.359086     2.98811  -2.91317e-05
4850  -0.00337281    0.359637     2.44756  -0.000109473
4860   -0.002047    0.360483     1.98566  -2.93536e-05
4870  -0.00278574    0.360012     1.52278  -1.81533e-05
4880  -0.00168393    0.360715     2.37103  -0.000179645
4890  0.000807153    0.362305       1.291  -9.92609e-05
4900  0.000301287    0.361982     3.68088  -0.000296956
4910  0.00674627    0.366095     3.52526  5.09088e-05
4920  -0.000716888    0.361332     3.98972  0.000538376
4930  -0.00402124    0.359223     3.06524  -6.98116e-06
4940  -0.000577265    0.361421     2.75519  -7.64168e-05
4950  -0.0024929    0.360199     4.83692  2.80904e-05
4960  -0.00113907    0.361063     4.75971  -6.53007e-05
4970  -0.00118689    0.361032     3.75757  -6.57069e-05
4980  0.000175066    0.361901     3.98874  4.01405e-05
4990  -0.0019897     0.36052     2.75519  0.000145988
