Time   Number   
ps   
0          12         122
10          16         124
20          12         124
30          18         116
40          12         118
50          12         118
60          12         122
70          14         114
80          14         118
90          16         122
100          14         120
110          16         122
120          14         124
130          17         121
140          14         116
150          16         126
160          13         119
170          12         122
180          16         126
190          13         121
200          10         118
210          13         125
220          12         124
230          16         120
240          15         119
250          12         120
260          18         120
270          16         120
280          15         119
290          16         118
300          15         123
310          15         119
320          16         128
330          13         125
340          16         118
350          15         131
360          14         126
370          15         119
380          14         118
390          14         120
400          14         122
410          14         118
420          16         118
430          19         119
440          14         130
450          16         126
460          16         124
470          14         128
480          16         120
490          17         119
500          11         121
510          15         121
520          13         123
530          14         120
540          14         122
550          16         124
560          17         119
570          15         119
580          15         125
590          13         117
600          10         120
610          13         119
620          14         118
630          12         122
640          12         120
650          15         115
660          12         116
670          11         115
680          12         116
690          14         114
700          11         121
710          14         118
720          11         125
730          11         125
740          16         126
750          15         117
760          10         120
770          13         121
780          10         118
790          11         125
800          14         118
810          13         115
820          11         113
830          12         112
840          13         123
850          12         120
860          11         119
870          10         118
880          11         119
890          10         120
900          10         118
910          12         120
920          13         121
930          10         120
940           8         118
950           8         114
960          12         120
970          10         118
980          14         114
990           9         117
1000          14         116
1010          10         116
1020           9         115
1030          11         121
1040          10         122
1050          11         119
1060          12         116
1070          12         114
1080          13         117
1090          14         116
1100           8         112
1110          11         119
1120          11         113
1130           7         121
1140          12         110
1150          10         112
1160          13         115
1170          11         119
1180          11         117
1190          10         116
1200          12         120
1210          11         115
1220          12         120
1230          14         116
1240          14         114
1250          10         122
1260          13         119
1270          10         116
1280           8         116
1290          17         113
1300          15         117
1310          11         115
1320          15         117
1330          15         111
1340          13         119
1350          12         124
1360          12         124
1370          15         125
1380          13         121
1390           9         119
1400          14         116
1410          14         118
1420          10         116
1430          13         121
1440          10         116
1450           9         117
1460          15         121
1470          14         120
1480          12         120
1490          11         119
1500          12         122
1510          11         117
1520          12         126
1530          13         117
1540          13         123
1550          11         115
1560          12         126
1570           6         120
1580          10         116
1590          12         128
1600          12         120
1610          12         120
1620           8         118
1630          11         119
1640          14         120
1650           9         119
1660           8         124
1670          11         115
1680           9         119
1690          12         122
1700          12         112
1710           8         118
1720          13         119
1730          12         116
1740          11         121
1750          11         123
1760          14         118
1770          13         117
1780          12         118
1790          14         122
1800           7         115
1810          10         122
1820          10         112
1830           9         121
1840          11         129
1850          12         122
1860          11         115
1870          15         121
1880          12         116
1890          14         122
1900          13         119
1910          11         117
1920          13         115
1930          10         118
1940          12         114
1950          12         120
1960          17         119
1970          10         116
1980           8         116
1990          12         112
2000           9         121
2010          10         116
2020          11         109
2030          12         116
2040          11         117
2050           9         115
2060          11         109
2070          10         122
2080           9         115
2090          12         114
2100          10         116
2110          11         119
2120          11         121
2130          14         122
2140          13         121
2150          16         124
2160          11         129
2170          11         117
2180          10         122
2190          14         122
2200          10         118
2210          14         120
2220          12         118
2230          12         122
2240          16         118
2250          12         124
2260          12         122
2270          10         122
2280          11         123
2290          12         128
2300          16         122
2310          12         124
2320          16         126
2330          14         120
2340          15         125
2350          11         129
2360          15         119
2370          17         123
2380          16         116
2390          11         119
2400          13         119
2410          13         125
2420          15         119
2430          11         123
2440          14         130
2450           9         113
2460          11         121
2470          14         124
2480          16         122
2490          14         124
2500          13         117
2510          13         119
2520          18         116
2530          14         120
2540          16         122
2550          13         115
2560          13         121
2570          13         123
2580          12         118
2590          13         121
2600          15         119
2610          15         115
2620          16         122
2630          16         122
2640          18         122
2650          13         113
2660          13         129
2670          14         120
2680          14         116
2690          14         118
2700          14         118
2710          14         120
2720          11         121
2730          17         117
2740          13         119
2750          15         121
2760          11         125
2770          14         122
2780          14         122
2790          17         121
2800          13         129
2810          10         126
2820          12         128
2830          11         119
2840          14         118
2850          16         120
2860          13         127
2870          12         128
2880          16         118
2890          14         122
2900          11         117
2910          14         120
2920          16         122
2930          14         122
2940          13         119
2950          11         117
2960          13         117
2970          13         117
2980          14         118
2990          11         125
3000          12         128
3010          12         116
3020          11         123
3030          12         122
3040          10         120
3050          12         116
3060          14         114
3070          13         121
3080          11         119
3090          10         120
3100          13         119
3110          14         114
3120          14         122
3130          14         120
3140          14         124
3150          12         122
3160          12         126
3170          14         116
3180          10         122
3190          13         115
3200          13         117
3210          10         116
3220           9         119
3230          10         120
3240          11         119
3250          12         122
3260          14         118
3270          13         119
3280          11         119
3290          11         119
3300           9         117
3310          11         119
3320          10         126
3330          12         120
3340          10         122
3350          12         120
3360          12         118
3370          13         119
3380          10         118
3390          12         120
3400          14         124
3410          16         116
3420          17         123
3430          17         123
3440          11         123
3450          12         124
3460          13         129
3470          12         118
3480          17         121
3490          12         118
3500          15         123
3510          13         115
3520          13         121
3530          13         119
3540          11         119
3550          13         115
3560          12         124
3570          12         126
3580          11         123
3590          14         130
3600          12         122
3610          11         115
3620          12         118
3630          16         120
3640          13         127
3650          14         118
3660          15         123
3670          14         116
3680          13         121
3690          14         120
3700          15         125
3710          15         131
3720          15         121
3730          15         123
3740          12         126
3750          11         123
3760          12         118
3770          10         122
3780          14         118
3790          13         123
3800          12         122
3810          11         123
3820          15         119
3830          15         121
3840          17         129
3850          17         119
3860          15         127
3870          17         123
3880          15         123
3890          15         121
3900          14         116
3910          13         119
3920          13         125
3930          11         117
3940          15         119
3950          12         122
3960          16         118
3970          12         120
3980          14         114
3990          12         118
4000          14         114
4010          18         114
4020          10         122
4030           7         115
4040          10         112
4050          12         124
4060          10         118
4070          11         123
4080          12         118
4090          12         118
4100          10         114
4110          10         112
4120          14         114
4130          13         113
4140          14         112
4150          14         114
4160          16         116
4170          12         120
4180          14         122
4190          12         118
4200           7         119
4210          10         122
4220          12         116
4230          11         119
4240          12         122
4250          10         120
4260          13         121
4270          10         114
4280           9         117
4290          13         117
4300          13         117
4310          13         119
4320          13         127
4330          16         126
4340          17         119
4350          15         117
4360          11         119
4370          13         121
4380          15         127
4390          16         120
4400          16         122
4410          15         121
4420          14         110
4430          11         121
4440          15         127
4450          16         122
4460          17         119
4470          13         125
4480           9         123
4490          15         127
4500          11         123
4510          15         117
4520          11         117
4530          10         114
4540          14         128
4550          14         126
4560          12         126
4570          13         127
4580          13         125
4590          15         123
4600          13         129
4610          15         129
4620          14         122
4630          14         122
4640          14         130
4650          12         126
4660          15         127
4670          15         127
4680          16         130
4690          16         124
4700          16         126
4710          12         132
4720          11         125
4730          16         128
4740          14         128
4750          17         125
4760          13         127
4770          11         127
4780          14         122
4790          12         118
4800          12         122
4810          12         134
4820          13         129
4830          14         122
4840          13         125
4850          15         115
4860          11         127
4870          11         127
4880          14         120
4890          11         119
4900          11         121
4910          12         126
4920          14         120
4930           9         119
4940          10         126
4950           9         117
4960          15         109
4970          13         119
4980          13         121
4990          12         122
5000          11         125
5010          12         118
5020           9         121
5030           9         121
5040          10         118
5050          15         123
5060          10         124
5070          11         111
5080          12         118
5090          14         124
5100          10         122
5110          13         117
5120          11         119
5130          12         116
5140          11         111
5150          10         116
5160           8         122
5170          11         117
5180           9         111
5190          11         115
5200          12         118
5210          12         118
5220          11         115
5230          12         124
5240          14         124
5250          15         119
5260          13         123
5270          14         118
5280          14         120
5290          14         124
5300          14         120
5310          13         117
5320          13         121
5330          16         112
5340          16         112
5350          13         115
5360          13         117
5370          16         122
5380          12         118
5390          11         117
5400          13         121
5410          14         114
5420          13         121
5430          13         119
5440          11         115
5450          13         123
5460          13         111
5470          12         114
5480          14         118
5490          12         116
5500          12         116
5510          12         120
5520          12         114
5530          13         113
5540          13         115
5550          15         113
5560          10         118
5570          11         119
5580           8         114
5590          13         107
5600          10         112
5610          12         112
5620          12         114
5630          12         114
5640          10         114
5650          13         113
5660          13         113
5670           9         111
5680          14         110
5690           9         119
5700          14         110
5710          10         116
5720          13         117
5730          10         120
5740           9         119
5750          10         116
5760          12         116
5770          10         118
5780          14         120
5790          11         119
5800          11         117
5810          13         113
5820          12         114
5830          13         113
5840          13         119
5850          14         120
5860          13         119
5870          12         126
5880          13         119
5890          13         125
5900          14         126
5910          15         125
5920          13         129
5930          16         120
5940          12         126
5950          14         120
5960          15         119
5970          14         120
5980          13         125
5990          15         115
6000          15         121
6010          15         121
6020          14         118
6030          11         121
6040          14         114
6050          12         126
6060          10         122
6070          10         124
6080          10         122
6090          15         119
6100          13         125
6110          13         119
6120           9         127
6130          11         119
6140          15         115
6150          14         124
6160          13         117
6170          12         114
6180          12         118
6190          11         119
6200          12         118
6210          12         112
6220          15         115
6230          12         120
6240          11         127
6250          15         117
6260          12         124
6270          14         128
6280          12         126
6290          11         125
6300          12         122
6310          13         117
6320          13         123
6330          15         123
6340          14         118
6350          14         132
6360          13         113
6370          15         117
6380          15         119
6390          13         115
6400          14         118
6410          13         115
6420          12         118
6430          11         119
6440          14         120
6450          11         123
6460          10         122
6470          12         122
6480          11         121
6490          14         132
6500          14         134
6510          18         126
6520          14         126
6530          14         122
6540          16         124
6550          14         122
6560          16         120
6570          16         118
6580          16         122
6590          15         117
6600          13         111
6610          14         120
6620          17         121
6630          15         119
6640          16         124
6650          17         123
6660          16         118
6670          17         119
6680          15         115
6690          14         122
6700          15         115
6710          14         124
6720          13         121
6730          16         110
6740          14         122
6750          15         123
6760          15         127
6770          15         119
6780          13         131
6790          15         129
6800          11         125
6810          16         124
6820          11         127
6830          18         128
6840          13         129
6850          16         126
6860          14         126
6870          17         121
6880          13         129
6890          16         126
6900          16         128
6910          18         128
6920          16         124
6930          15         125
6940          18         126
6950          17         123
6960          18         126
6970          14         138
6980          17         127
6990          13         121
7000          14         124
7010          19         125
7020          14         122
7030          12         126
7040          14         122
7050          16         118
7060          17         123
7070          19         125
7080          15         129
7090          20         116
7100          17         127
7110          22         122
7120          21         123
7130          22         132
7140          14         126
7150          18         130
7160          20         122
7170          17         133
7180          19         131
7190          18         116
7200          16         122
7210          17         125
7220          17         127
7230          21         123
7240          17         127
7250          14         130
7260          16         128
7270          18         126
7280          16         130
7290          15         125
7300          17         127
7310          18         128
7320          19         131
7330          14         122
7340          15         125
7350          16         128
7360          15         131
7370          15         125
7380          15         127
7390          15         119
7400          13         135
7410          16         124
7420          15         129
7430          15         125
7440          14         132
7450          15         131
7460          14         132
7470          15         123
7480          17         133
7490          11         127
7500          15         125
7510          12         126
7520          13         121
7530          15         123
7540          13         125
7550          17         121
7560          16         128
7570          14         122
7580          15         125
7590          11         123
7600          17         125
7610          15         129
7620          14         126
7630          10         128
7640          13         129
7650          17         133
7660          11         127
7670          17         137
7680          17         123
7690          15         125
7700          16         124
7710          18         130
7720          14         130
7730          14         128
7740          17         123
7750          15         129
7760          15         123
7770          13         125
7780          16         128
7790          16         118
7800          15         119
7810          14         128
7820          18         132
7830          17         123
7840          17         133
7850          17         141
7860          11         129
7870          14         118
7880          12         134
7890          13         125
7900          11         117
7910          11         123
7920          10         124
7930          14         122
7940           9         121
7950           7         117
7960           9         119
7970          12         114
7980          15         115
7990          15         117
8000          15         115
8010           9         119
8020          10         114
8030          15         119
8040          10         120
8050           9         121
8060          14         110
8070          11         123
8080          15         117
8090          15         119
8100          14         112
8110          11         113
8120          13         123
8130          11         113
8140          12         120
8150          11         115
8160          15         115
8170          10         116
8180          13         117
8190          12         126
8200          12         118
8210          13         117
8220          10         118
8230          13         115
8240          11         117
8250          12         118
8260          17         119
8270          13         123
8280          18         120
8290          17         123
8300          13         119
8310          16         116
8320          14         116
8330          11         125
8340          16         120
8350          13         125
8360          13         117
8370          16         118
8380          17         115
8390          20         112
8400          14         118
8410          14         120
8420          17         121
8430          14         124
8440          12         118
8450          14         124
8460          17         121
8470          14         116
8480          17         117
8490          14         120
8500          14         116
8510          13         117
8520          15         117
8530          15         125
8540          16         122
8550          13         129
8560          14         124
8570          14         126
8580          16         122
8590          17         125
8600          15         129
8610          15         127
8620          16         130
8630          17         129
8640          14         134
8650          18         116
8660          16         130
8670          16         120
8680          14         128
8690          16         130
8700          14         120
8710          15         121
8720          11         131
8730          13         119
8740          15         121
8750          13         119
8760          15         115
8770          11         119
8780          17         125
8790          11         123
8800          17         121
8810          18         128
8820          13         131
8830          14         122
8840          18         130
8850          14         124
8860          16         128
8870          17         123
8880          15         121
8890          16         120
8900          16         124
8910          11         121
8920          11         125
8930          14         118
8940          13         123
8950          13         127
8960          15         121
8970          16         120
8980          13         115
8990          14         120
9000          17         127
9010          14         122
9020          15         127
9030          15         123
9040          12         118
9050          17         117
9060          12         116
9070          14         130
9080          14         128
9090          14         124
9100          19         127
9110          15         123
9120          15         121
9130          15         119
9140          18         118
9150          13         125
9160          16         120
9170          14         122
9180          14         126
9190          13         129
9200          18         122
9210          14         124
9220          18         128
9230          15         123
9240          17         121
9250          13         125
9260          14         126
9270          11         115
9280          16         126
9290          13         129
9300          19         121
9310          15         123
9320          19         125
9330          15         129
9340          14         122
9350          17         119
9360          16         122
9370          15         123
9380          13         127
9390          14         126
9400          10         122
9410          13         121
9420          12         124
9430          14         122
9440          15         123
9450          17         121
9460          16         118
9470          11         123
9480          13         131
9490          11         129
9500          14         126
9510          13         123
9520          12         118
9530          12         124
9540          13         133
9550          16         122
9560          15         117
9570          14         118
9580          12         124
9590          14         122
9600          13         119
9610          12         122
9620          13         123
9630          14         126
9640           9         123
9650          15         127
9660          12         126
9670          12         128
9680          11         123
9690           9         119
9700          12         118
9710          13         121
9720          12         112
9730          10         120
9740          12         118
9750          12         124
9760          12         120
9770          13         117
9780          10         112
9790          11         113
9800          11         119
9810          12         112
9820          11         111
9830           9         115
9840           9         111
9850           9         117
9860          10         112
9870          12         124
9880          12         114
9890          12         120
9900           6         118
9910          13         117
9920          14         116
9930          14         112
9940          13         121
9950          12         116
9960          13         121
9970          14         122
9980          16         124
9990          10         122
10000          13         119
