Time   C(t)   
ps   
0           1           1  8.4182e-10   0.0366953
10    0.637747    0.856861    -0.43772   0.0197462
20    0.605076    0.843951    -1.10856  0.00279706
30    0.581805    0.834756     0.48191   0.0022461
40    0.560154    0.826201    0.871073   0.0017722
50    0.546361    0.820751    0.409515  0.00153004
60    0.529553     0.81411   -0.085307  0.00124256
70     0.52151    0.810931    -1.07516  0.000844836
80    0.512657    0.807433   -0.722019  0.000903815
90    0.503434    0.803789    0.479769   0.0010865
100    0.490927    0.798847   0.0905026  0.000876498
110    0.485904    0.796862    0.161068  0.000745985
120    0.476007    0.792951    0.196575  0.000849059
130    0.468923    0.790152   -0.334133  0.000797778
140    0.460051    0.786647    0.124836  0.000834796
150    0.452227    0.783555   -0.935718  0.000481342
160    0.450425    0.782843    -0.58258  0.00040711
170    0.444085    0.780338     -1.1127  0.000545616
180    0.439512    0.778531    -1.36042  0.000457749
190     0.43493     0.77672    0.583701  0.000659287
200    0.426326    0.773321    0.406649  0.000731836
210    0.420293    0.770937    0.088949  0.000666451
220    0.412997    0.768054   0.0540633  0.000761619
230    0.405061    0.764918     1.22065  0.000646827
240    0.400061    0.762942    0.159238  0.000415294
250    0.396755    0.761636    0.512238  0.000290628
260    0.394248    0.760646   -0.937755  0.000385578
270    0.389043    0.758589   -0.442139  0.000534499
280    0.383558    0.756422   -0.548695  0.000423121
290    0.380581    0.755245    -1.39676  0.000311595
300    0.377326    0.753959    -1.21988  0.000294173
310    0.374697     0.75292   -0.619571  0.000533979
320    0.366647    0.749739     1.21924  0.000688407
330    0.360929     0.74748   -0.265328  0.000504558
340    0.356556    0.745752    0.794397  0.000102718
350    0.358875    0.746668     0.05106  0.000130466
360    0.353946    0.744721    0.722381  0.000420755
370     0.35046    0.743343    0.545674  0.000467063
380    0.344605     0.74103     1.11199  0.000290604
390    0.344648    0.741046    0.828868  0.000127752
400     0.34205     0.74002    0.227491   0.0001188
410    0.342272    0.740108   -0.868777  0.000292422
420    0.336202    0.737709     0.12128  0.000639623
430    0.329479    0.735053   -0.655286  0.000394191
440    0.328318    0.734594    -1.29217  -0.000130746
450    0.332094    0.736086   -0.903766  -8.95277e-05
460    0.330108    0.735302    -1.22223  0.000262916
470    0.326836    0.734008   -0.196316  0.000231254
480    0.325483    0.733474   -0.620814  0.000236474
490    0.322106     0.73214    -1.29279  0.000370251
500    0.318078    0.730548    0.156822  0.00041239
510    0.313858    0.728881    -1.29269  0.000311859
520    0.311841    0.728083    -1.29369  0.000118896
530     0.31148    0.727941   -0.374439  0.000336288
540    0.305115    0.725426    0.615825  0.000142519
550     0.30863    0.726815   -0.693451  -2.79129e-05
560    0.305674    0.725646    0.225972  0.000309883
570    0.302432    0.724366    0.509615  0.000125051
580    0.303173    0.724658    -1.08196  0.00011158
590    0.300201    0.723484    0.827211  6.51345e-05
600     0.30187    0.724144   -0.269644  0.00012604
610     0.29768    0.722488   -0.551698  0.000107358
620    0.299723    0.723295    0.367414  9.85473e-05
630    0.295709    0.721709     1.46282  0.000294489
640    0.293833    0.720968    0.649572  5.70044e-05
650    0.294569    0.721259     1.24971  0.000375289
660    0.286327    0.718002    0.509028  0.000492617
670    0.284717    0.717366    0.260167  -0.000241835
680    0.291164    0.719913     1.24946  -0.000105864
690    0.286834    0.718202     1.21423  0.000649586
700    0.278172     0.71478     2.06399  0.000363968
710    0.279555    0.715326    0.790254  -0.000152551
720    0.281223    0.715985  -0.0234069  0.000252381
730    0.274507    0.713331    0.861372  0.000318535
740    0.274853    0.713468     1.14277  -1.53184e-06
750    0.274538    0.713344   -0.447835  0.00029629
760    0.268927    0.711126   -0.695315  0.000277729
770    0.268983    0.711149   -0.659842  0.000231232
780    0.264302    0.709299   -0.164227  0.000340527
790    0.262172    0.708458   -0.023545  9.45285e-05
800    0.262412    0.708552    0.117137  0.00015194
810    0.259134    0.707257   -0.625095  0.000304338
820    0.256325    0.706147   -0.730891  0.000209728
830    0.254939    0.705599   -0.165297  0.000296125
840    0.250402    0.703807   -0.978233  0.00014381
850    0.252063    0.704463   -0.836895  0.000106256
860    0.248277    0.702967    0.259166  0.000206689
870    0.247929     0.70283    0.117448  0.000437174
880    0.239534    0.699512    0.400849  0.00047131
890    0.238503    0.699105    0.895981  0.000295129
900    0.233631     0.69718    0.471518  -2.45124e-06
910    0.238552    0.699124    0.328419  -0.000199132
920    0.237614    0.698754    0.152161  0.00018542
930    0.234844    0.697659     1.45912  0.000320751
940    0.231199    0.696219     1.42455  0.000297286
950    0.228898     0.69531    -0.06064  0.000191687
960    0.227365    0.694704  -0.0248912  0.000172794
970    0.225442    0.693944    0.328937  0.000265172
980    0.222061    0.692608     1.28297  0.000289926
990    0.219643    0.691653    0.293119  0.000334319
1000    0.215375    0.689966   -0.802872  0.000145468
1010    0.216734    0.690503    -0.48531  -2.42032e-05
1020    0.215859    0.690158    -0.30812  6.81601e-05
1030    0.215371    0.689965    -1.08662  0.000165877
1040    0.212542    0.688847     -1.8637  1.35601e-07
1050    0.215368    0.689964    -0.34449  0.000156827
1060    0.209405    0.687607   -0.237831  0.000303464
1070    0.209299    0.687565     -1.3686  -4.08813e-06
1080    0.209487     0.68764   -0.591141  0.000142995
1090    0.206439    0.686435     -2.1814  0.000133355
1100     0.20682    0.686586    -1.33368  7.97749e-05
1110    0.204843    0.685805   0.0803873  7.48955e-05
1120    0.205322    0.685994   -0.485138  8.50543e-05
1130    0.203142    0.685133   -0.414814  0.000159059
1140    0.202141    0.684737  0.00940761  0.000100252
1150    0.201137     0.68434   -0.344041  0.000149889
1160    0.199143    0.683552    0.610509  0.000333218
1170    0.194473    0.681707   0.0449491  2.67223e-05
1180    0.198608    0.683341     1.28148  5.70729e-05
1190    0.193332    0.681256    0.327556  8.64416e-05
1200     0.19688    0.682658    0.220379  0.000186521
1210    0.189601    0.679782    0.150504  0.00030081
1220    0.190863    0.680281   -0.309812  0.000102726
1230    0.187547     0.67897    -1.08779  0.00010265
1240     0.18881     0.67947     1.28107  9.31852e-05
1250    0.185683    0.678234    0.893219  0.000303117
1260    0.182748    0.677074   -0.238763  0.000193693
1270    0.181809    0.676703   -0.026721  -7.62828e-05
1280    0.184274    0.677677      0.7858  0.000144442
1290     0.17892    0.675562   0.0436371  0.000139283
1300    0.181488    0.676576   -0.380791  -0.000126356
1310    0.181447     0.67656    0.750259  7.95558e-05
1320    0.179897    0.675948    0.326175  0.000200565
1330    0.177436    0.674975    0.608852  6.47657e-05
1340    0.178602    0.675436     0.25485  0.000292399
1350    0.171588    0.672664    0.362131  0.000418997
1360    0.170222    0.672125    0.997808  0.000121627
1370    0.169155    0.671703    0.891459  5.39273e-06
1380    0.170114    0.672082    -0.02717  -5.53749e-05
1390    0.170263    0.672141    -0.13414  0.000162891
1400    0.166856    0.670795   -0.558707  0.000305478
1410    0.164153    0.669727    0.361337  0.000117818
1420      0.1645    0.669864     1.28055  -0.000223275
1430    0.168619    0.671491     2.69397  5.71176e-05
1440    0.163357    0.669412     1.13897  0.00027641
1450    0.163091    0.669307    0.148674  -7.04907e-05
1460    0.164767    0.669969    0.713508  0.000236738
1470    0.158356    0.667436     1.13901  0.000447039
1480    0.155826    0.666436   -0.204741  0.000155741
1490    0.155241    0.666205    -1.54876  0.000171632
1500    0.152394     0.66508   -0.416713  -5.45308e-05
1510    0.156332    0.666636    -1.08938  -9.54702e-05
1520    0.154303    0.665834   -0.665056  0.000332064
1530     0.14969    0.664012    0.183353  0.000291366
1540    0.148476    0.663532   -0.982549  -4.37908e-05
1550    0.150566    0.664358    0.006197  0.000116792
1560     0.14614    0.662609   0.0421178  0.000173692
1570    0.147092    0.662985     1.66823  3.18289e-06
1580    0.146076    0.662584     1.34998  8.6163e-05
1590    0.145369    0.662304    0.642563  -0.000137224
1600    0.148821    0.663668    0.570962  0.000154263
1610    0.142284    0.661085  -0.0289303  0.000107138
1620    0.146678    0.662822    0.784039  -9.54777e-05
1630    0.144194     0.66184     1.06616  0.000149443
1640    0.143689    0.661641   -0.170614  0.000217941
1650    0.139835    0.660118    0.147363  0.000176377
1660    0.140162    0.660247    0.111407  1.97008e-05
1670    0.139441    0.659962    0.712922  0.000124712
1680    0.137667    0.659261   -0.277342  3.03127e-05
1690    0.138834    0.659722    -1.37313  -0.000153667
1700    0.140741    0.660475     0.67662  0.000135874
1710    0.136117    0.658648   -0.348046  0.000193845
1720    0.136864    0.658944  -0.0659912  -8.21799e-07
1730    0.136133    0.658655     1.17175  1.49183e-05
1740    0.136565    0.658826    0.782452  0.000258602
1750    0.130961    0.656611    0.110888  0.000296012
1760    0.130645    0.656486   -0.808327  -1.07929e-05
1770    0.131177    0.656697   -0.278102  6.35967e-05
1780    0.129373    0.655984    -1.23265  0.000281765
1790    0.125542     0.65447    -1.23227  0.000213115
1800    0.125111      0.6543   -0.349151  0.000101784
1810    0.123506    0.653666   -0.171822  1.11852e-05
1820    0.124887    0.654211    -0.20802  -0.000164995
1830    0.126806    0.654969   -0.738832  0.000145091
1840    0.121985    0.653065  -0.0668891  0.000273619
1850    0.121334    0.652807    -0.49073  9.74916e-05
1860    0.120036    0.652294    0.498325  0.000151442
1870    0.118305     0.65161    0.250673  6.50138e-06
1880    0.119906    0.652243  0.00350386  6.74315e-06
1890     0.11817    0.651557    0.958054  9.82385e-05
1900    0.117941    0.651466   -0.385176  -5.80307e-05
1910    0.119331    0.652016   -0.137834  -0.000106731
1920    0.120075     0.65231    0.569547  6.62062e-05
1930    0.118007    0.651492   0.0752088  -0.000231925
1940    0.124714    0.654143    0.250707  -0.000128852
1950    0.120584    0.652511   -0.632656  3.86164e-05
1960    0.123942    0.653838    0.462162  -8.59898e-05
1970    0.122303     0.65319  -0.0678553  0.000360167
1980    0.116738    0.650991   -0.420338   0.0001427
1990    0.119449    0.652063    0.709883  -8.58087e-05
2000    0.118454    0.651669   -0.526548  -2.06586e-05
2010    0.119863    0.652226   0.0381826  -7.52795e-05
2020     0.11996    0.652264    0.427345  0.000127246
2030    0.117318     0.65122    0.427449  6.15377e-05
2040    0.118729    0.651778     1.34663  -0.00010839
2050    0.119485    0.652077     1.02772  5.63409e-05
2060    0.117602    0.651333   -0.704326  0.000122419
2070    0.117037    0.651109   0.0023301  0.000122826
2080    0.115146    0.650362   0.0740692  5.67857e-05
2090    0.115901    0.650661    0.957502  2.94451e-05
2100    0.114557    0.650129    0.497428  2.93773e-05
2110    0.115314    0.650428   0.0732755  -3.13986e-05
2120    0.115185    0.650378   -0.138525  2.95356e-05
2130    0.114723    0.650195    0.178761  2.40147e-05
2140    0.114705    0.650188    0.143151  -7.0513e-05
2150    0.116133    0.650752     1.59311  -4.27272e-05
2160    0.115559    0.650525     1.09898  4.63024e-05
2170    0.115207    0.650386    0.426414  -8.76337e-05
2180    0.117312    0.651218      1.0271  -0.000216321
2190    0.119534    0.652096    0.921063  -0.000104875
2200    0.119409    0.652047   -0.139388  0.000175094
2210    0.116032    0.650712     1.91133  0.000180954
2220     0.11579    0.650617    0.603604  7.32355e-06
2230    0.115885    0.650654   -0.245149  2.42487e-05
2240    0.115305    0.650425     1.31016  0.000103194
2250    0.113821    0.649839    0.992318  0.000323527
2260    0.108835    0.647868    0.567786  0.000115012
2270    0.111521     0.64893    0.814541  -9.9219e-05
2280    0.110819    0.648652    0.991352  0.000126944
2290    0.108982    0.647927   0.0718949  0.000263384
2300    0.105551    0.646571     2.29935  9.35547e-05
2310    0.107111    0.647187     1.87465  0.000190812
2320    0.101735    0.645063    0.178416  0.000367392
2330   0.0997634    0.644284     1.34497  0.000203182
2340   0.0976716    0.643457    0.814955  -0.000167446
2350    0.103112    0.645607    0.672167  -0.000304633
2360    0.103764    0.645865    0.460574  0.000186626
2370   0.0993798    0.644132     1.27385  0.000117999
2380    0.101404    0.644932     1.23807  2.11637e-05
2390   0.0989565    0.643965     0.21337  3.67314e-06
2400    0.101331    0.644903     1.48569  -0.00013414
2410    0.101639    0.645025     1.87447  7.86059e-05
2420   0.0997587    0.644282     1.27441  0.000286403
2430   0.0959112    0.642762     1.62751  -6.54444e-05
2440    0.101068    0.644799     1.13179  -0.000146019
2450   0.0988316    0.643916     1.13203  3.85035e-05
2460    0.100298    0.644495    0.778171  -0.000158365
2470    0.101999    0.645167     1.02506  0.000224594
2480   0.0958056     0.64272    0.636798  0.000404961
2490   0.0938997    0.641967     1.48552  9.18351e-05
2500   0.0939689    0.641994     1.41457  -0.00010609
2510   0.0960215    0.642805     1.30826  0.000121544
2520   0.0915381    0.641034    0.530587  0.000168193
2530   0.0926576    0.641476  -0.0701688  -0.000235055
2540   0.0962392    0.642891   0.0351786  -1.85315e-05
2550   0.0930283    0.641623     0.63628  0.000321505
2560   0.0898091    0.640351    0.141527  -2.45351e-05
2570    0.093519    0.641816   0.0699273  0.000176059
2580   0.0862879    0.638959   -0.423687  0.00038216
2590   0.0858758    0.638796   -0.424135  0.000265557
2600   0.0809767    0.636861   -0.459332  0.00014181
2610   0.0830396    0.637676     -1.0251  -9.40599e-05
2620   0.0828579    0.637604   -0.353846  0.00020782
2630   0.0788832    0.636033    -1.55539  0.000130934
2640   0.0802393    0.636569   -0.884382  0.000119771
2650   0.0764877    0.635087   -0.707364   4.238e-05
2660   0.0793917    0.636234    -0.74325  -7.62448e-05
2670   0.0780126    0.635689    -2.47509  0.000132156
2680   0.0767485     0.63519   -0.778343  0.000132525
2690   0.0753621    0.634642   -0.566302  0.000198686
2700   0.0727748     0.63362    -1.30843  0.000330986
2710   0.0687424    0.632026    -2.05035  -2.22497e-05
2720   0.0732198    0.633796    -1.13272  -0.000183957
2730   0.0724215     0.63348   -0.601982  0.000146124
2740   0.0702973    0.632641     -1.3447  0.000254884
2750   0.0673238    0.631466   -0.814955  0.000177078
2760   0.0667558    0.631241   -0.920889  0.000238193
2770     0.06256    0.629583    -1.66281  0.000262788
2780      0.0615    0.629165    -0.67341  0.000324296
2790   0.0560741    0.627021    -1.06123  0.000203582
2800   0.0574284    0.627556    -1.02655  7.09353e-05
2810   0.0546554     0.62646    -1.20288  0.000119515
2820   0.0550381    0.626611     -1.8047  2.26118e-05
2830   0.0542031    0.626281    -2.26412  6.52785e-05
2840   0.0537325    0.626095    -2.65311  0.000248767
2850   0.0492278    0.624315    -1.59242  7.17649e-05
2860   0.0522972    0.625528   -0.567199  0.000103156
2870   0.0471647      0.6235    -1.98134  9.05603e-05
2880    0.050486    0.624813    -1.69963  0.000134404
2890   0.0444766    0.622438    -1.91095  0.000208001
2900    0.046326    0.623169    -2.97178  -0.000252968
2910    0.049536    0.624437    -2.54766  3.64067e-05
2920   0.0455978    0.622881    -1.91129  0.000128656
2930   0.0469628     0.62342   -0.427207  4.89645e-05
2940   0.0446185    0.622494   -0.285317  0.000104619
2950   0.0448704    0.622594    -1.02841  0.000278831
2960   0.0390419    0.620291    -1.20374  0.000223282
2970   0.0404048    0.620829    -1.13386  6.64461e-06
2980    0.038909    0.620238    0.244839  -9.32604e-05
2990     0.04227    0.621566   -0.109784   -4.95e-05
3000    0.039899    0.620629   -0.710678  0.000224934
3010   0.0377713    0.619789    -1.31147  0.000256883
3020   0.0347614    0.618599    -1.62907  -4.95454e-05
3030   0.0387622     0.62018    -1.02883  1.35913e-05
3040   0.0344895    0.618492    -1.73559  0.000396438
3050   0.0308335    0.617047    -1.94718  0.000101791
3060   0.0324537    0.617687    -1.34739  0.000115095
3070   0.0285316    0.616138    -1.80639  0.000348567
3080   0.0254824    0.614933    -1.91198  0.000172605
3090   0.0250795    0.614774     -1.2054  0.000192313
3100   0.0216361    0.613413    -1.66443  9.1209e-05
3110   0.0232553    0.614053   -0.957778  -0.000212934
3120   0.0258948    0.615096   -0.640216  1.54164e-05
3130    0.022947    0.613931    -1.06437  0.000110593
3140   0.0236829    0.614222    -1.63045  -0.000226812
3150   0.0274832    0.615723   -0.110405  4.7358e-05
3160   0.0227358    0.613847   -0.604778  0.000341108
3170    0.020661    0.613028     -1.9831  0.000239807
3180   0.0179396    0.611952    -1.62903  -0.000157249
3190    0.023806     0.61427    -2.37285  3.56524e-05
3200   0.0172266    0.611671    -2.33689  4.7705e-05
3210   0.0228519    0.613893    -1.56026  -0.000189658
3220   0.0210198    0.613169    -1.06513  0.000396438
3230   0.0149232     0.61076    -1.91257  0.000397298
3240   0.0130738     0.61003    -2.58479  3.97479e-06
3250   0.0148437    0.610729    -1.77199  0.00017928
3260   0.0094882    0.608613    -1.27641  2.99957e-05
3270   0.0142438    0.610492    -1.52424  -0.000378751
3280   0.0170632    0.611606    -1.27714  -4.14675e-05
3290   0.0150731     0.61082    -2.09021  -2.82088e-06
3300   0.0171196    0.611628    -1.77261  -4.16636e-05
3310   0.0159064    0.611149    -2.12606  -0.000100931
3320   0.0191383    0.612426    -2.55063  -4.19728e-05
3330   0.0167458    0.611481    -2.26768  0.000272352
3340   0.0136912    0.610274    -2.54966  0.000128581
3350   0.0141742    0.610465    -2.19687  -8.78526e-05
3360   0.0154483    0.610968    -3.04562  3.05765e-05
3370   0.0135627    0.610223    -1.87872  3.70176e-05
3380   0.0147079    0.610675    -1.94922  -0.000326204
3390   0.0200868    0.612801    -2.44542  5.04202e-05
3400   0.0136995    0.610277    -1.73755  0.000440854
3410   0.0112697    0.609317    -2.72727  0.000289782
3420  0.00790387    0.607987    -2.79814  -2.0138e-06
3430     0.01131    0.609333    -2.16222  -1.48583e-06
3440  0.00793358    0.607999   -0.995633  0.000264787
3450  0.00601422     0.60724    -2.37434  -1.45566e-06
3460   0.0079627     0.60801    -1.49025  5.49078e-06
3470  0.00590441    0.607197    -2.48027  7.21872e-05
3480  0.00651895     0.60744    -1.73786  -0.000303162
3490   0.0119677    0.609593    -1.41992  -4.83159e-05
3500  0.00748527    0.607821    -3.50587  0.000253677
3510  0.00689411    0.607588    -2.55142  0.000173827
3520  0.00400873    0.606448    -2.37489  0.000255239
3530  0.00178933    0.605571    -1.06647  1.26409e-05
3540  0.00375591    0.606348    -2.94059  -0.000142791
3550  0.00464515    0.606699    -1.95087  -0.000143311
3560  0.00662213     0.60748    -2.62299  0.000223184
3570  0.000181468    0.604935    -2.30439  0.00018241
3580  0.00297393    0.606039    -2.19763  -0.00024563
3590  0.00509406    0.606877    -2.33979  -0.00013727
3600  0.00571932    0.607124    -2.30484  -6.94494e-05
3610  0.00648305    0.607425    -1.84528  3.99063e-05
3620  0.00492119    0.606808    -2.02192  0.000149586
3630  0.00349133    0.606243    -1.95067  0.000211901
3640  0.000683181    0.605134    -1.66816  0.000143643
3650  0.000618468    0.605108    -1.66796  -0.000138212
3660  0.00344743    0.606226   -0.890458  2.72126e-05
3670  7.42161e-05    0.604893    -1.70381  0.000248006
3680  -0.00151268    0.604266    -2.65743  -0.000124908
3690  0.00257237     0.60588    -2.23417  -0.000131786
3700  0.00112305    0.605308    -1.24408  0.00045075
3710  -0.00644262    0.602318    -1.27934  0.000347345
3720  -0.00582385    0.602563     -2.3399  -4.80293e-05
3730  -0.00548204    0.602698     -1.5623  -0.00013193
3740  -0.00318526    0.603605    -1.49187  -0.000181151
3750  -0.00185902    0.604129    -1.88107  0.000112222
3760  -0.00542969    0.602718    -1.10298  0.00028049
3770  -0.00746883    0.601913    -2.65857  0.000211275
3780  -0.00965519    0.601049    -2.90591  -3.42496e-05
3790  -0.00678384    0.602183   -0.962128  -6.91779e-05
3800  -0.00827163    0.601595    -2.58803  0.000219579
3810  -0.0111754    0.600448    -2.55298  5.05333e-05
3820  -0.0092823    0.601196    -3.29542  0.000114816
3830  -0.0134717    0.599541     -2.2702  0.000299052
3840  -0.0152633    0.598833    -2.72944  5.16345e-05
3850  -0.0145044    0.599133    -3.01205  2.20235e-06
3860  -0.0153074    0.598815    -2.26975  -0.000119085
3870  -0.0121227    0.600074    -2.62378  -4.92511e-06
3880  -0.0152089    0.598854    -2.34104  0.00025192
3890  -0.0171611    0.598083    -2.16433  3.0848e-05
3900  -0.0158258     0.59861    -2.41167  -9.79064e-05
3910   -0.015203    0.598857    -1.70505  5.97802e-05
3920  -0.0170214    0.598138    -1.88148  0.000131779
3930  -0.0178386    0.597815    -2.23476  8.18112e-05
3940  -0.0186577    0.597491     -1.4574  -0.000213975
3950  -0.0135591    0.599506    -1.95294  -0.000163532
3960   -0.015387    0.598784    -2.27064  2.36903e-05
3970  -0.0140329    0.599319    -2.05891  -7.03394e-05
3980  -0.0139802     0.59934    -1.70512  0.000329115
3990  -0.0206152    0.596718    -2.62375  0.000198634
4000  -0.0179529     0.59777    -2.02313  -0.000120828
4010  -0.0181986    0.597673    -2.12989  -1.92253e-05
4020  -0.0175684    0.597922     -1.8466  -0.000209464
4030  -0.0140094    0.599328    -1.70546  -0.000136613
4040  -0.0148361    0.599001    -1.95288  9.39015e-06
4050  -0.0141972    0.599254     -1.7407  -4.92814e-05
4060  -0.0138505    0.599391    -2.09446  6.10322e-05
4070  -0.0154178    0.598772     -2.3418  0.000127495
4080  -0.0164004    0.598383    -2.05898  0.000194493
4090  -0.0193077    0.597235    -2.30608  4.6898e-05
4100  -0.0173384    0.598013    -2.69507  -0.000123135
4110   -0.016845    0.598208    -2.16471  0.000203227
4120  -0.0214029    0.596407    -1.91726  -1.97533e-05
4130  -0.0164499    0.598364    -2.83727  -0.000123384
4140  -0.0189352    0.597382     -2.4831  0.000181716
4150  -0.0200842    0.596928    -1.98821  0.000152558
4160  -0.0219864    0.596176    -3.26115  -0.000289073
4170  -0.0143027    0.599212     -3.4743  0.000123543
4180  -0.0244572      0.5952    -2.76623  0.000408166
4190  -0.0224661    0.595987    -3.19007  -0.000244619
4200  -0.0195649    0.597133    -3.15546  -8.69551e-05
4210   -0.020727    0.596674    -2.37772  0.000101308
4220   -0.021591    0.596332    -3.29714  -0.000155688
4230  -0.0176132    0.597904    -3.65111  -0.000299927
4240  -0.0155925    0.598703    -3.65145  -0.000316354
4250  -0.0112861    0.600404    -3.29832  3.28694e-05
4260  -0.0162499    0.598443    -2.97896  0.000138869
4270  -0.0140635    0.599307    -2.06026  4.83385e-05
4280  -0.0172166    0.598061    -3.72202  0.000116936
4290  -0.0164022    0.598383      -2.591  -8.16227e-05
4300  -0.0155842    0.598706     -3.0156  0.000186815
4310  -0.0201385    0.596906    -3.40415  0.000271628
4320  -0.0210167    0.596559    -2.90908  -3.52829e-05
4330  -0.0194329    0.597185    -2.66202  0.000126876
4340  -0.0235543    0.595557    -2.69732  0.000420634
4350  -0.0278455    0.593861    -2.44911  0.000166519
4360  -0.0268846    0.594241    -3.36891  9.00021e-05
4370  -0.0296456     0.59315    -2.52064  0.000214367
4380   -0.031172    0.592547    -2.20253  0.00037093
4390  -0.0370642    0.590218    -1.84808  0.000426486
4400  -0.0397017    0.589176    -3.47437  2.19481e-05
4410  -0.0375031    0.590045    -3.19203  -0.000251543
4420  -0.0346709    0.591164    -3.86456  -0.000126922
4430  -0.0349647    0.591048    -3.22775  6.08966e-05
4440  -0.0358888    0.590683    -3.58127  -1.87047e-06
4450  -0.0349273    0.591063    -3.33427  -1.75057e-05
4460  -0.0355387    0.590821    -3.19221  0.000219277
4470  -0.0393128     0.58933    -3.22782  0.000227717
4480   -0.040093    0.589022    -3.05142  6.23144e-05
4490  -0.0405591    0.588837     -1.9555  -0.000120118
4500  -0.0376906    0.589971    -2.94545  0.000182109
4510  -0.0442013    0.587398    -2.87378  0.000205822
4520  -0.0418071    0.588344    -2.94514  -0.000215868
4530  -0.0398839    0.589104    -1.70809  0.000127344
4540  -0.0443539    0.587338    -3.01578  0.000175305
4550    -0.04339    0.587719    -2.62699  0.000104204
4560   -0.046438    0.586514    -2.16785  0.000104219
4570  -0.0454744    0.586895     -2.5212  0.000145272
4580  -0.0493435    0.585366    -2.23821  0.000209955
4590  -0.0496735    0.585236    -2.59193  8.96778e-05
4600   -0.051137    0.584658    -1.21323  0.000122351
4610  -0.0521205    0.584269    -2.55695  -3.14137e-05
4620  -0.0505088    0.584906    -2.80439  0.000115103
4630  -0.0544226    0.583359    -2.76882  0.000269901
4640  -0.0559068    0.582773    -3.12223  -0.000112614
4650  -0.0521703    0.584249    -2.16796  -0.00035801
4660  -0.0487466    0.585602    -2.52209  9.44287e-06
4670  -0.0523592    0.584175    -2.45053  5.80981e-05
4680  -0.0499085    0.585143    -3.30011  1.31987e-06
4690  -0.0523856    0.584164    -3.33493  0.000149217
4700  -0.0528929    0.583964    -3.68845  -8.95722e-05
4710  -0.0505941    0.584872    -3.93641  -8.95949e-05
4720   -0.051101    0.584672    -4.50252  6.72923e-05
4730    -0.05194     0.58434     -4.0783  0.00018376
4740  -0.0547762     0.58322    -4.04224  0.000217587
4750  -0.0562917    0.582621    -3.26433  -3.98986e-05
4760  -0.0539782    0.583535    -3.30028  2.05152e-06
4770  -0.0563328    0.582605     -3.0173  0.000118776
4780  -0.0563537    0.582596    -2.91133  -1.46547e-05
4790  -0.0560397     0.58272    -2.91191  0.000245735
4800  -0.0612684    0.580654    -2.02758  0.000498643
4810  -0.0660125     0.57878    -2.66364  0.000104257
4820  -0.0633536     0.57983    -3.86622  -1.29201e-05
4830  -0.0657541    0.578882    -4.18382  0.000164331
4840  -0.0666402    0.578532    -3.26471  3.91454e-06
4850  -0.0658324    0.578851    -3.26502  0.000310064
4860  -0.0728415    0.576081    -3.40587  -3.85862e-05
4870  -0.0650607    0.579156    -3.19456  -0.000199433
4880  -0.0688528    0.577658    -4.89127  -1.32669e-05
4890  -0.0647954    0.579261    -3.23006  -0.000243827
4900  -0.0639763    0.579584    -3.51267  0.000235515
4910  -0.0695057      0.5774    -3.40625  0.000106836
4920   -0.066113     0.57874    -4.14897  0.000108134
4930  -0.0716683    0.576545    -3.72423  0.00040984
4940  -0.0743098    0.575501    -3.68886  -3.45409e-06
4950  -0.0715993    0.576572    -3.40691  -0.000124267
4960  -0.0718245    0.576483    -3.51253  0.000161503
4970  -0.0748293    0.575296    -4.75007  0.000196688
4980  -0.0757582    0.574929    -3.93672  0.000250027
4990  -0.0798299     0.57332    -4.46667  0.000303366
