Time   Number   
ps   
0          26          26
10          31          24
20          29          31
30          26          33
40          29          26
50          30          24
60          29          23
70          29          23
80          31          24
90          27          26
100          28          25
110          27          29
120          28          27
130          28          27
140          29          29
150          30          25
160          28          26
170          28          27
180          29          26
190          31          24
200          24          22
210          33          27
220          31          27
230          29          30
240          27          27
250          27          29
260          26          22
270          29          21
280          30          25
290          28          20
300          25          19
310          26          25
320          30          20
330          31          23
340          24          24
350          26          23
360          28          24
370          26          23
380          26          25
390          29          25
400          29          22
410          30          25
420          31          23
430          26          24
440          26          26
450          23          27
460          23          24
470          31          24
480          25          24
490          24          28
500          27          26
510          23          20
520          22          22
530          27          22
540          27          28
550          28          22
560          26          25
570          23          25
580          28          24
590          29          23
600          28          24
610          27          21
620          29          28
630          25          24
640          29          22
650          25          22
660          27          20
670          17          24
680          26          19
690          25          19
700          25          20
710          27          19
720          22          17
730          23          17
740          26          20
750          25          19
760          22          22
770          19          24
780          26          22
790          22          19
800          23          16
810          26          29
820          21          22
830          26          19
840          27          19
850          27          21
860          28          20
870          28          23
880          24          22
890          25          24
900          29          18
910          25          19
920          31          22
930          27          22
940          28          24
950          30          24
960          30          22
970          32          23
980          30          24
990          30          23
1000          31          27
1010          26          24
1020          27          23
1030          27          23
1040          27          20
1050          27          25
1060          25          23
1070          28          20
1080          29          22
1090          29          25
1100          30          28
1110          29          21
1120          31          26
1130          27          24
1140          27          24
1150          30          22
1160          29          24
1170          29          22
1180          25          25
1190          28          28
1200          28          29
1210          27          26
1220          29          24
1230          28          26
1240          29          25
1250          27          26
1260          27          26
1270          26          23
1280          30          24
1290          28          23
1300          29          20
1310          24          22
1320          28          26
1330          28          21
1340          26          22
1350          32          20
1360          30          25
1370          31          25
1380          20          24
1390          26          25
1400          32          27
1410          29          27
1420          29          26
1430          30          23
1440          27          24
1450          28          18
1460          28          25
1470          28          19
1480          30          23
1490          31          22
1500          28          22
1510          28          26
1520          30          25
1530          28          27
1540          30          23
1550          29          19
1560          27          21
1570          27          26
1580          25          24
1590          26          18
1600          26          21
1610          25          21
1620          28          23
1630          29          22
1640          32          21
1650          27          21
1660          24          21
1670          25          19
1680          26          23
1690          26          21
1700          30          21
1710          26          24
1720          27          23
1730          25          26
1740          28          23
1750          28          21
1760          24          31
1770          27          24
1780          27          22
1790          27          19
1800          25          25
1810          25          21
1820          27          19
1830          30          24
1840          27          24
1850          28          27
1860          28          21
1870          27          22
1880          26          27
1890          29          24
1900          32          25
1910          26          18
1920          29          25
1930          30          23
1940          25          24
1950          21          19
1960          26          19
1970          25          21
1980          27          25
1990          26          20
2000          21          19
2010          25          22
2020          26          18
2030          23          21
2040          25          22
2050          25          22
2060          26          18
2070          23          17
2080          26          17
2090          24          20
2100          25          19
2110          24          18
2120          26          18
2130          24          19
2140          24          18
2150          26          18
2160          21          18
2170          24          16
2180          25          18
2190          26          19
2200          26          18
2210          23          21
2220          26          18
2230          25          20
2240          27          20
2250          23          20
2260          30          21
2270          29          21
2280          29          18
2290          27          21
2300          29          20
2310          25          16
2320          24          19
2330          28          20
2340          26          24
2350          25          22
2360          23          26
2370          25          22
2380          28          23
2390          26          24
2400          27          23
2410          24          19
2420          24          24
2430          24          21
2440          25          19
2450          25          22
2460          27          24
2470          26          18
2480          26          22
2490          26          18
2500          29          19
2510          27          21
2520          30          25
2530          28          21
2540          31          22
2550          29          20
2560          28          16
2570          29          23
2580          29          20
2590          28          26
2600          29          25
2610          28          20
2620          29          27
2630          30          21
2640          25          24
2650          29          23
2660          28          18
2670          26          22
2680          28          26
2690          33          23
2700          32          21
2710          31          28
2720          28          25
2730          27          21
2740          26          27
2750          34          21
2760          28          19
2770          29          21
2780          31          19
2790          30          21
2800          30          20
2810          30          20
2820          30          18
2830          29          22
2840          31          21
2850          28          20
2860          27          25
2870          31          20
2880          31          23
2890          28          22
2900          28          23
2910          31          20
2920          30          23
2930          25          21
2940          30          23
2950          28          27
2960          28          21
2970          27          23
2980          31          21
2990          24          23
3000          31          23
3010          32          21
3020          29          24
3030          28          21
3040          31          23
3050          30          25
3060          28          23
3070          29          19
3080          27          24
3090          30          20
3100          26          27
3110          29          23
3120          30          20
3130          27          22
3140          29          21
3150          29          27
3160          28          25
3170          31          24
3180          31          22
3190          28          25
3200          30          23
3210          33          24
3220          28          24
3230          31          25
3240          29          20
3250          31          21
3260          28          20
3270          25          24
3280          30          19
3290          24          21
3300          27          21
3310          28          18
3320          26          23
3330          30          20
3340          30          20
3350          30          23
3360          31          21
3370          31          23
3380          28          24
3390          25          24
3400          28          22
3410          27          25
3420          28          25
3430          29          23
3440          31          24
3450          27          21
3460          30          20
3470          31          20
3480          29          24
3490          29          22
3500          32          23
3510          31          21
3520          32          21
3530          30          22
3540          29          24
3550          29          21
3560          33          24
3570          31          19
3580          34          22
3590          31          24
3600          33          24
3610          30          22
3620          27          22
3630          27          16
3640          29          21
3650          29          22
3660          30          24
3670          33          20
3680          31          23
3690          30          25
3700          30          27
3710          32          22
3720          30          23
3730          25          19
3740          29          18
3750          28          19
3760          29          20
3770          27          21
3780          29          24
3790          35          22
3800          30          22
3810          29          24
3820          30          24
3830          26          23
3840          27          31
3850          29          25
3860          30          23
3870          25          20
3880          30          18
3890          27          21
3900          26          21
3910          25          18
3920          30          22
3930          31          21
3940          27          22
3950          27          19
3960          26          21
3970          29          23
3980          28          21
3990          29          21
4000          27          17
4010          28          23
4020          29          23
4030          27          26
4040          27          28
4050          29          22
4060          32          25
4070          31          20
4080          29          23
4090          30          21
4100          30          24
4110          30          21
4120          29          20
4130          31          21
4140          30          22
4150          29          20
4160          29          22
4170          29          21
4180          29          20
4190          26          21
4200          31          24
4210          27          25
4220          28          25
4230          28          21
4240          28          24
4250          30          27
4260          26          24
4270          31          26
4280          33          23
4290          36          28
4300          30          24
4310          29          23
4320          28          20
4330          30          22
4340          35          23
4350          30          22
4360          31          26
4370          30          27
4380          33          30
4390          33          21
4400          30          20
4410          28          21
4420          28          19
4430          29          20
4440          27          22
4450          30          18
4460          32          25
4470          31          26
4480          32          28
4490          28          28
4500          31          24
4510          26          27
4520          32          25
4530          30          24
4540          29          27
4550          28          27
4560          28          27
4570          27          21
4580          26          31
4590          27          31
4600          25          24
4610          29          24
4620          32          20
4630          33          22
4640          30          22
4650          26          21
4660          30          20
4670          31          25
4680          27          23
4690          28          20
4700          28          19
4710          26          19
4720          23          18
4730          27          20
4740          30          25
4750          33          24
4760          28          20
4770          26          26
4780          30          23
4790          30          24
4800          32          21
4810          28          27
4820          30          23
4830          29          21
4840          29          20
4850          31          20
4860          29          22
4870          27          22
4880          24          19
4890          32          24
4900          29          24
4910          29          21
4920          33          22
4930          32          22
4940          31          23
4950          29          18
4960          26          21
4970          30          23
4980          29          22
4990          27          22
5000          25          23
5010          30          22
5020          30          22
5030          27          19
5040          32          23
5050          33          27
5060          31          23
5070          30          21
5080          30          24
5090          30          22
5100          35          25
5110          33          24
5120          29          23
5130          22          26
5140          28          24
5150          29          28
5160          33          24
5170          31          24
5180          32          23
5190          27          23
5200          34          22
5210          31          22
5220          32          22
5230          30          26
5240          31          22
5250          31          23
5260          28          22
5270          28          21
5280          27          21
5290          28          21
5300          27          23
5310          28          19
5320          29          21
5330          28          28
5340          27          23
5350          29          26
5360          25          30
5370          28          25
5380          31          28
5390          28          22
5400          29          25
5410          29          20
5420          28          27
5430          31          24
5440          29          23
5450          27          29
5460          30          27
5470          32          27
5480          32          28
5490          31          26
5500          31          29
5510          29          20
5520          29          24
5530          31          28
5540          27          28
5550          27          29
5560          27          23
5570          28          28
5580          31          29
5590          26          24
5600          26          22
5610          25          18
5620          28          22
5630          25          21
5640          27          23
5650          24          20
5660          26          25
5670          25          24
5680          29          22
5690          27          27
5700          24          23
5710          27          23
5720          29          23
5730          22          20
5740          27          21
5750          29          23
5760          25          23
5770          25          23
5780          28          20
5790          24          22
5800          28          22
5810          25          23
5820          25          22
5830          26          24
5840          23          24
5850          26          21
5860          27          20
5870          28          24
5880          25          24
5890          29          24
5900          30          23
5910          31          22
5920          27          21
5930          30          24
5940          31          21
5950          28          23
5960          28          21
5970          30          29
5980          28          21
5990          25          20
6000          28          21
6010          30          20
6020          28          24
6030          27          29
6040          30          24
6050          26          23
6060          25          22
6070          27          21
6080          28          20
6090          30          19
6100          27          28
6110          30          22
6120          26          25
6130          29          24
6140          32          23
6150          29          22
6160          29          19
6170          32          25
6180          31          22
6190          31          22
6200          31          26
6210          29          26
6220          31          28
6230          31          25
6240          30          22
6250          32          27
6260          31          28
6270          30          26
6280          32          23
6290          29          24
6300          30          22
6310          27          25
6320          29          26
6330          29          25
6340          29          22
6350          25          15
6360          27          21
6370          26          18
6380          29          25
6390          29          22
6400          27          19
6410          25          22
6420          23          27
6430          33          26
6440          31          21
6450          29          22
6460          26          27
6470          29          23
6480          33          24
6490          33          23
6500          29          26
6510          33          27
6520          32          29
6530          35          23
6540          36          27
6550          32          24
6560          31          29
6570          29          25
6580          33          28
6590          29          22
6600          31          24
6610          29          18
6620          31          26
6630          28          24
6640          31          23
6650          31          22
6660          33          23
6670          32          28
6680          30          26
6690          28          27
6700          29          32
6710          30          25
6720          31          24
6730          30          22
6740          29          21
6750          30          26
6760          27          27
6770          27          27
6780          32          26
6790          30          28
6800          30          28
6810          32          28
6820          27          21
6830          34          27
6840          27          27
6850          33          23
6860          28          30
6870          32          26
6880          34          26
6890          30          29
6900          29          26
6910          31          28
6920          33          21
6930          31          23
6940          32          25
6950          30          24
6960          26          26
6970          29          25
6980          31          27
6990          29          29
7000          28          26
7010          30          28
7020          33          24
7030          30          28
7040          28          26
7050          31          27
7060          30          25
7070          31          25
7080          33          24
7090          32          30
7100          32          22
7110          32          33
7120          30          22
7130          33          26
7140          34          25
7150          33          23
7160          33          31
7170          30          24
7180          36          31
7190          28          33
7200          33          31
7210          38          36
7220          34          28
7230          30          30
7240          33          31
7250          30          25
7260          33          28
7270          32          28
7280          32          22
7290          30          27
7300          33          27
7310          31          24
7320          34          27
7330          32          27
7340          28          30
7350          29          29
7360          28          31
7370          33          25
7380          29          23
7390          30          21
7400          33          25
7410          31          27
7420          31          23
7430          29          22
7440          28          24
7450          32          29
7460          32          28
7470          36          23
7480          29          21
7490          32          19
7500          28          20
7510          35          24
7520          31          22
7530          31          26
7540          28          28
7550          34          25
7560          30          28
7570          33          29
7580          32          23
7590          32          25
7600          32          25
7610          33          20
7620          32          24
7630          30          21
7640          30          28
7650          32          21
7660          31          25
7670          32          26
7680          31          25
7690          31          27
7700          33          22
7710          30          23
7720          32          29
7730          35          25
7740          35          26
7750          39          24
7760          33          26
7770          35          24
7780          33          25
7790          31          26
7800          32          24
7810          27          25
7820          30          23
7830          34          22
7840          28          28
7850          34          26
7860          29          29
7870          32          27
7880          33          22
7890          32          20
7900          33          21
7910          31          27
7920          29          32
7930          33          22
7940          35          29
7950          32          22
7960          30          26
7970          33          23
7980          34          24
7990          31          25
8000          32          26
8010          31          27
8020          28          24
8030          28          21
8040          28          24
8050          31          21
8060          25          21
8070          27          23
8080          31          21
8090          28          30
8100          32          25
8110          28          26
8120          33          31
8130          28          25
8140          27          31
8150          28          29
8160          28          31
8170          32          31
8180          30          31
8190          33          27
8200          33          31
8210          31          25
8220          30          25
8230          28          31
8240          34          26
8250          33          28
8260          35          28
8270          32          28
8280          29          21
8290          33          26
8300          31          31
8310          32          28
8320          32          26
8330          31          28
8340          34          24
8350          32          26
8360          34          25
8370          33          28
8380          31          26
8390          34          33
8400          32          29
8410          31          29
8420          34          25
8430          31          30
8440          33          26
8450          31          25
8460          31          27
8470          32          27
8480          32          26
8490          32          23
8500          30          29
8510          33          26
8520          33          24
8530          31          27
8540          35          26
8550          31          31
8560          32          25
8570          30          25
8580          31          25
8590          35          27
8600          28          28
8610          28          28
8620          31          24
8630          34          24
8640          31          29
8650          32          24
8660          29          28
8670          29          26
8680          29          30
8690          31          22
8700          32          22
8710          31          24
8720          32          23
8730          32          22
8740          28          22
8750          27          24
8760          29          22
8770          31          21
8780          28          26
8790          31          22
8800          27          23
8810          32          21
8820          29          25
8830          28          26
8840          31          28
8850          32          26
8860          27          23
8870          27          24
8880          32          20
8890          32          24
8900          32          23
8910          27          23
8920          26          26
8930          27          22
8940          27          24
8950          28          20
8960          26          23
8970          30          21
8980          28          21
8990          28          20
9000          32          25
9010          34          21
9020          31          21
9030          30          24
9040          24          22
9050          29          19
9060          30          22
9070          33          21
9080          32          23
9090          31          24
9100          32          25
9110          30          23
9120          33          24
9130          27          25
9140          31          25
9150          30          25
9160          27          25
9170          32          29
9180          32          25
9190          30          27
9200          32          28
9210          30          27
9220          33          21
9230          29          20
9240          28          25
9250          29          28
9260          30          22
9270          31          22
9280          29          22
9290          28          27
9300          32          30
9310          31          32
9320          30          28
9330          31          23
9340          27          23
9350          32          22
9360          30          25
9370          32          23
9380          26          22
9390          32          23
9400          30          28
9410          30          23
9420          29          23
9430          32          26
9440          33          23
9450          30          23
9460          33          21
9470          32          28
9480          34          24
9490          32          19
9500          30          23
9510          29          22
9520          29          19
9530          27          20
9540          29          25
9550          32          22
9560          28          24
9570          23          17
9580          29          16
9590          30          22
9600          27          18
9610          27          18
9620          27          21
9630          29          23
9640          28          20
9650          29          19
9660          26          23
9670          26          23
9680          29          25
9690          28          23
9700          27          21
9710          31          20
9720          30          19
9730          30          20
9740          30          18
9750          30          18
9760          28          20
9770          30          20
9780          27          17
9790          29          20
9800          27          22
9810          24          23
9820          26          19
9830          24          21
9840          24          21
9850          28          19
9860          26          19
9870          27          21
9880          27          18
9890          29          24
9900          26          21
9910          29          23
9920          26          21
9930          25          24
9940          27          26
9950          30          21
9960          29          20
9970          26          24
9980          30          24
9990          25          25
10000          27          20
