Time   C(t)   
ps   
0           1           1  5.90807e-10   0.0272981
10    0.732462    0.761269   -0.725805   0.0152543
20    0.694914    0.727763    -2.10359  0.00321057
30    0.668251    0.703971   -0.710551  0.00255305
40    0.643852      0.6822    0.232986  0.00229287
50    0.622393    0.663052    0.559111   0.0019256
60     0.60534    0.647835    -1.18855   0.0017361
70    0.587671    0.632068    -1.37367   0.0014584
80    0.576172    0.621808   0.0201887  0.00128513
90    0.561969    0.609133   -0.945923  0.00131583
100    0.549856    0.598324     -1.0504  0.00131399
110    0.535689    0.585683   -0.927841  0.00125518
120    0.524752    0.575924    -1.15487  0.00109954
130    0.513698     0.56606   -0.292829  0.00103343
140    0.504084    0.557481    -1.17668  0.00103093
150    0.493079    0.547661    -2.84136  0.000957581
160    0.484932    0.540391    -0.35867  0.000842014
170    0.476239    0.532634    -1.03624  0.000891739
180    0.467097    0.524477    -0.52407  0.000867188
190    0.458895    0.517158    -2.22955  0.000888468
200    0.449328    0.508621    -1.98309  0.000834988
210    0.442196    0.502256    -2.16878  0.000688831
220    0.435551    0.496327    -2.27217  0.000666009
230    0.428875    0.490371    -1.28623  0.000742161
240    0.420708    0.483082    -1.59586  0.000635357
250    0.416168    0.479032    -2.31668  0.000607909
260     0.40855    0.472233    -2.04959  0.000622813
270    0.403712    0.467917    -1.10469  0.000536424
280    0.397821     0.46266    -1.98891  0.000582621
290     0.39206    0.457519   -0.983021  0.000589435
300    0.386033    0.452141   -0.265068  0.000590937
310    0.380241    0.446973    -3.03796  0.00054927
320    0.375047    0.442338    -0.90345  0.000557201
330    0.369097    0.437029    -0.41044  0.000486243
340    0.365322     0.43366   -0.206529  0.00040579
350    0.360981    0.429787   -0.843707  0.000524339
360    0.354836    0.424303   -0.802106  0.000525415
370    0.350473     0.42041   -0.926788  0.000499672
380    0.344842    0.415385    0.243436  0.000569555
390    0.339082    0.410245   -0.742402  0.000447948
400    0.335883    0.407391   -0.723217  0.000375202
410    0.331578    0.403549    -1.13431  0.00048144
420    0.326254    0.398799   -0.744629  0.000433055
430    0.322917    0.395821   -0.601564  0.000367108
440    0.318912    0.392247   -0.396811  0.000432529
450    0.314266    0.388101   -0.232574  0.000455765
460    0.309797    0.384114    0.959162  0.000375475
470    0.306756    0.381401     1.47158  0.000356235
480    0.302672    0.377756     1.14339  0.00037221
490    0.299312    0.374758    0.608234  0.000381283
500    0.295047    0.370951     1.98508  0.000437807
510    0.290556    0.366945     1.98464  0.000370005
520    0.287646    0.364348     2.00436  0.000287615
530    0.284804    0.361812     1.94205  0.000321567
540    0.281215    0.358609     1.09942  0.000379324
550    0.277217    0.355042    0.278097  0.000413392
560    0.272947    0.351232     1.32542  0.000355884
570      0.2701    0.348691    0.646906  0.00029588
580     0.26703    0.345951     1.03701  0.000313278
590    0.263834      0.3431    0.523107  0.000294659
600    0.261136    0.340693  0.00906658  0.000248697
610     0.25886    0.338661    0.480644  0.000291243
620    0.255312    0.335495    0.707271  0.000378132
630    0.251298    0.331913    0.789149  0.000328519
640    0.248741    0.329632     1.13793  0.000251132
650    0.246275    0.327431    0.787504  0.000273295
660    0.243275    0.324755   -0.321472  0.000246093
670    0.241353    0.323039    0.684675  0.000202179
680    0.239232    0.321146    0.889169  0.000273841
690    0.235876    0.318152     1.25902  0.000239149
700    0.234449    0.316878    0.642233  0.000232595
710    0.231224    0.314001   -0.343646  0.000262149
720    0.229206      0.3122   0.0670245  0.000236087
730    0.226503    0.309788   -0.487814  0.00017831
740     0.22564    0.309018   -0.241781  0.000166545
750    0.223172    0.306816   0.0865509  0.00022887
760    0.221062    0.304933    0.291225  0.000248955
770    0.218193    0.302373    0.579059  0.000249425
780    0.216074    0.300482   -0.283883  0.000199883
790    0.214195    0.298805   -0.120108  0.00022846
800    0.211504    0.296405   -0.243306  0.000215533
810    0.209884    0.294959   -0.161629  0.000189159
820    0.207721    0.293029   0.0021665  0.000191979
830    0.206045    0.291533    0.679681  0.000155533
840    0.204611    0.290253     0.69995  0.000209904
850    0.201847    0.287787       1.399  0.000196851
860    0.200674     0.28674    0.104774  0.000126022
870    0.199326    0.285538    0.495116  0.000201312
880    0.196647    0.283147    -1.55942  0.000227616
890    0.194774    0.281475   -0.840848  0.000228237
900    0.192083    0.279074    -1.55914  0.000205118
910    0.190671    0.277815    -1.95008  0.000184642
920     0.18839    0.275779    -2.52555  0.000147885
930    0.187714    0.275176    -2.42391  0.000183024
940    0.184729    0.272512     -2.2795  0.000231652
950    0.183081    0.271041    -2.62874  0.000105402
960    0.182621    0.270631    -1.89038  0.000149366
970    0.180093    0.268376    -2.93763  0.000129584
980     0.18003    0.268319    -2.46585  0.000137473
990    0.177344    0.265922    -2.71239  0.000196443
1000    0.176101    0.264813    -2.42467  0.000178164
1010    0.173781    0.262743    -3.00082  0.000213493
1020    0.171831    0.261003    -2.28191  0.000171383
1030    0.170353    0.259684     -2.4879  0.000151753
1040    0.168796    0.258295    -3.47439  0.000180968
1050    0.166734    0.256454     -3.0227  0.00021904
1060    0.164415    0.254386    -4.04935  0.000222097
1070    0.162292    0.252491    -4.11126  0.000225071
1080    0.159914    0.250369    -3.94701  0.000206605
1090     0.15816    0.248804    -2.79701  0.000106172
1100     0.15779    0.248474    -2.73616  0.000151937
1110    0.155121    0.246092    -2.24283  0.000214159
1120    0.153507    0.244652    -2.14035  0.000153968
1130    0.152041    0.243344    -2.28433  0.000145442
1140    0.150598    0.242056    -2.53129  0.000113943
1150    0.149763    0.241311    -2.12058  0.000144729
1160    0.147704    0.239473     -2.0383  0.000194632
1170     0.14587    0.237837    -1.56586  0.000156882
1180    0.144566    0.236674    -2.01805  0.000135648
1190    0.143157    0.235416    -1.77144  0.000138432
1200    0.141797    0.234203    -1.95656  0.00014257
1210    0.140306    0.232872    -1.79283  0.000100709
1220    0.139783    0.232406    -2.32748  0.000138122
1230    0.137543    0.230407    -1.91667  0.000149891
1240    0.136785    0.229731    -3.10858  0.000125961
1250    0.135024    0.228159    -2.04017  0.000115856
1260    0.134468    0.227663    -2.47189  5.18166e-05
1270    0.133988    0.227234    -2.02082  9.06423e-05
1280    0.132655    0.226045    -1.03476  0.000174598
1290    0.130496    0.224118    -1.03436  0.000123278
1300     0.13019    0.223845    -2.22609  6.8102e-05
1310    0.129134    0.222903    -1.93894  0.000108376
1320    0.128022    0.221911    -1.34359  8.66085e-05
1330    0.127401    0.221357    -1.48739  0.000107532
1340    0.125872    0.219992    -1.95985  0.000138939
1350    0.124623    0.218878     -1.2824  0.000106738
1360    0.123737    0.218087    -1.87828  0.000110915
1370    0.122404    0.216898    -2.04255  0.00015031
1380    0.120731    0.215405    -1.94003  9.70583e-05
1390    0.120463    0.215166    -2.33109  3.72633e-05
1400    0.119985     0.21474    -1.40694  0.000108013
1410    0.118303    0.213239     -1.4074  0.000160604
1420    0.116773    0.211874    -1.30403  0.000159634
1430     0.11511     0.21039    -2.10553  9.30239e-05
1440    0.114913    0.210213    -1.96222  9.9976e-05
1450    0.113111    0.208605    -2.08534  0.000155346
1460    0.111806    0.207441     -3.1539  6.48148e-05
1470    0.111814    0.207449    -3.31827  0.000105972
1480    0.109686     0.20555     -3.0307  0.000115328
1490    0.109508     0.20539    -2.72304  9.18873e-05
1500    0.107849     0.20391    -2.53839  0.000154257
1510    0.106423    0.202638    -1.69616  8.43789e-05
1520    0.106161    0.202404    -1.67595  7.66613e-05
1530     0.10489    0.201269    -2.33354  0.000129983
1540    0.103561    0.200084    -3.13387  9.16827e-05
1550    0.103056    0.199633    -2.02531  5.20013e-05
1560    0.102521    0.199156    -2.25148  5.74604e-05
1570    0.101907    0.198608    -2.10795  0.000116323
1580    0.100195     0.19708    -1.57382  0.000119213
1590   0.0995224     0.19648    -1.75895  0.000108836
1600   0.0980182    0.195138    -1.24567  0.000111721
1610    0.097288    0.194486    -1.18414  9.05808e-05
1620   0.0962066    0.193521    -1.43086  5.72156e-05
1630   0.0961437    0.193465     -1.3489  0.000117906
1640   0.0938485    0.191417    -1.61573  0.000131525
1650   0.0935132    0.191118    -1.30802  6.45749e-05
1660    0.092557    0.190265     -1.2673  7.27825e-05
1670   0.0920575    0.189819    -1.43158  0.00012162
1680   0.0901246    0.188094   -0.773733  0.000101541
1690   0.0900267    0.188007    -1.02145  6.12758e-05
1700   0.0888991    0.187001   -0.918383  0.000122367
1710   0.0875794    0.185823    -1.80143  9.82042e-05
1720    0.086935    0.185248    -2.17189  8.89692e-05
1730      0.0858    0.184235    -2.43875  9.46186e-05
1740   0.0850426    0.183559    -2.27423  5.67324e-05
1750   0.0846654    0.183223    -2.27448  5.68625e-05
1760   0.0839054    0.182545    -1.82271  2.96846e-05
1770   0.0840717    0.182693    -1.80252  7.9222e-06
1780   0.0837469    0.182403    -1.53577  -8.51154e-06
1790   0.0842419    0.182845    -2.15232  5.45565e-05
1800   0.0826558     0.18143    -1.86467  9.29855e-05
1810   0.0823822    0.181185    -3.01522  5.0728e-05
1820   0.0816412    0.180524    -1.88546  0.000141613
1830   0.0795499    0.178658     -1.7212   9.919e-05
1840   0.0796574    0.178754    -1.39293  8.51899e-06
1850   0.0793795    0.178506    -1.82441  8.44672e-05
1860   0.0779681    0.177247    -2.42011  0.000124692
1870   0.0768857    0.176281    -2.54325  6.9664e-05
1880   0.0765748    0.176003    -2.15292  4.49419e-05
1890   0.0759869    0.175479     -2.7905  6.44367e-05
1900   0.0752861    0.174853     -2.6053  8.68503e-05
1910   0.0742499    0.173929    -2.42035  3.14079e-05
1920   0.0746579    0.174293    -2.52342  5.93949e-05
1930    0.073062    0.172869    -3.01605  0.000111004
1940   0.0724378    0.172312    -1.98947  8.06607e-05
1950   0.0714487    0.171429    -3.05743  9.2027e-05
1960   0.0705973     0.17067    -2.62627  5.72417e-05
1970   0.0703039    0.170408    -3.83821  7.4238e-05
1980   0.0691125    0.169345    -2.52404  0.000133325
1990   0.0676374    0.168028       -1.62  0.000139265
2000   0.0663272    0.166859    -2.83184  0.000101618
2010   0.0656051    0.166215    -2.27773  0.000123037
2020   0.0638665    0.164663    -1.78466  0.00010355
2030    0.063534    0.164367     -2.6064  4.45761e-05
2040    0.062975    0.163868    -1.43577  8.85075e-05
2050   0.0617639    0.162787    -1.49776  7.31494e-05
2060    0.061512    0.162562    -1.70316  8.0462e-05
2070   0.0601547    0.161351    -1.60031  8.90903e-05
2080   0.0597302    0.160973    -1.55897  3.5399e-05
2090   0.0594467     0.16072    -1.60055  3.40747e-05
2100   0.0590487    0.160364    -2.05278  6.97609e-05
2110   0.0580515    0.159475    -2.73004  8.84552e-05
2120   0.0572796    0.158786    -3.05885  8.15524e-05
2130   0.0564204    0.158019    -1.76531  0.000104623
2140   0.0551871    0.156919     -2.5658  8.76717e-05
2150    0.054667    0.156454    -1.80627  6.78731e-05
2160   0.0538297    0.155707    -1.64199  5.80091e-05
2170   0.0535068    0.155419    -1.64201  5.52978e-05
2180   0.0527237     0.15472    -2.23771  7.41178e-05
2190   0.0520244    0.154096    -1.74462  3.1084e-05
2200    0.052102    0.154166     -1.3547  6.8729e-05
2210   0.0506499     0.15287    -2.23767  5.86919e-05
2220   0.0509282    0.153118    -2.21734  1.41142e-05
2230   0.0503676    0.152618    -2.48457  4.01616e-05
2240    0.050125    0.152402     -2.3405  3.01329e-05
2250   0.0497649     0.15208    -1.84777  3.60487e-05
2260    0.049404    0.151758    -2.69006  2.44828e-05
2270   0.0492753    0.151643    -2.81316  2.30717e-05
2280   0.0489426    0.151346    -1.88887  1.58625e-05
2290    0.048958     0.15136      -2.649  5.82611e-05
2300   0.0477773    0.150307    -2.13528  8.60963e-05
2310   0.0472361    0.149824    -2.38192  2.34397e-05
2320   0.0473085    0.149888    -2.44409  2.94005e-05
2330   0.0466481    0.149299    -3.18325  4.70268e-05
2340    0.046368    0.149049    -2.44375  1.92642e-05
2350   0.0462628    0.148955    -2.32101  4.72821e-05
2360   0.0454224    0.148205     -2.4235  5.47042e-05
2370   0.0451687    0.147979    -1.54069  2.83638e-05
2380   0.0448551    0.147699    -2.75277  5.35302e-05
2390   0.0440981    0.147024    -2.85528  4.6251e-05
2400   0.0439301    0.146874    -2.46526  5.53088e-05
2410   0.0429919    0.146037    -1.68451  9.68939e-05
2420   0.0419922    0.145144    -2.36253  1.69864e-05
2430   0.0426522    0.145733    -1.21272  -3.66624e-06
2440   0.0420655     0.14521   -0.534921  9.44709e-05
2450   0.0407628    0.144047    -1.56148  5.14602e-05
2460   0.0410363    0.144291    -1.50031  1.73789e-05
2470   0.0404152    0.143737    -1.76719  5.47025e-05
2480   0.0399423    0.143315     -1.8701  4.4404e-05
2490   0.0395271    0.142945    -1.70575  5.50307e-05
2500   0.0388416    0.142333     -1.4389  0.000148162
2510   0.0365639    0.140301    -1.95232  9.7369e-05
2520   0.0368943    0.140595    -2.11672  2.25957e-05
2530    0.036112    0.139897    -2.13761  8.5859e-05
2540   0.0351771    0.139063    -1.50081  5.88989e-05
2550    0.034934    0.138846    -1.41863  6.06107e-05
2560   0.0339649    0.137981    -1.78825  6.67894e-05
2570   0.0335982    0.137654   -0.905014  2.76499e-05
2580   0.0334119    0.137488    -1.15145  4.89747e-05
2590   0.0326187     0.13678    -1.72674  8.70004e-05
2600   0.0316719    0.135935    -1.70585  6.7454e-05
2610   0.0312696    0.135576    -1.84925  7.8352e-05
2620   0.0301048    0.134537    -1.52112  8.15499e-05
2630   0.0296386    0.134121    -2.05521  1.46436e-05
2640    0.029812    0.134276    -2.61009  2.69659e-05
2650   0.0290993     0.13364    -3.08235  6.06599e-05
2660   0.0285988    0.133193    -3.20581  8.71206e-06
2670   0.0289251    0.133484    -3.20615  8.76794e-06
2680   0.0284234    0.133037    -3.28825  7.63864e-05
2690   0.0273973    0.132121    -3.59591  9.35115e-05
2700   0.0265532    0.131368    -3.49332  2.43951e-05
2710   0.0269094    0.131686    -3.20629  3.38126e-05
2720   0.0258769    0.130764    -2.67226  4.00013e-05
2730   0.0261094    0.130972    -3.39119  3.39963e-05
2740    0.025197    0.130158    -2.79572  8.51735e-05
2750   0.0244059    0.129452    -3.49366  7.76555e-05
2760   0.0236439    0.128772    -2.93944  4.67762e-05
2770   0.0234704    0.128617    -3.14486  3.60545e-05
2780   0.0229228    0.128128    -2.85717  5.48394e-05
2790   0.0223736    0.127638    -3.78156  4.71837e-05
2800   0.0219791    0.127286    -2.63108  5.3567e-05
2810   0.0213023    0.126682     -2.0766  3.96139e-05
2820   0.0211868    0.126579     -2.5077  -5.69029e-06
2830   0.0214161    0.126784    -2.79562  -9.78541e-07
2840   0.0212064    0.126597    -2.34405  4.30189e-05
2850   0.0205557    0.126016    -2.50846  6.51437e-05
2860   0.0199035    0.125434    -2.32316  5.90046e-05
2870   0.0193756    0.124963    -2.26199  0.000106543
2880   0.0177727    0.123533    -2.22073  7.67246e-05
2890   0.0178411    0.123594    -2.32372  3.27384e-05
2900   0.0171179    0.122948    -2.13859  5.65536e-05
2910   0.0167101    0.122585    -2.54938   6.944e-05
2920   0.0157291    0.121709    -2.87775  4.09849e-05
2930   0.0158904    0.121853    -2.30335  4.59538e-05
2940     0.01481    0.120889     -2.5085  4.9183e-05
2950   0.0149067    0.120975    -1.83113  -2.40502e-05
2960    0.015291    0.121318    -2.26241  3.10191e-06
2970   0.0148447     0.12092    -1.48201  6.87002e-05
2980    0.013917    0.120092     -1.9335  1.11217e-05
2990   0.0146222    0.120721    -1.35863  -4.01086e-05
3000   0.0147192    0.120808    -1.39973  3.53264e-05
3010   0.0139157    0.120091   -0.906759  3.69608e-05
3020     0.01398    0.120148    -1.68714  -2.25415e-05
3030   0.0143665    0.120493   -0.927208  4.89163e-06
3040   0.0138822    0.120061    -1.29738  6.14398e-05
3050   0.0131377    0.119397    -1.05089  5.99578e-05
3060    0.012683    0.118991   -0.578567  2.28554e-05
3070   0.0126806    0.118989   -0.928011  -9.52943e-06
3080   0.0128736    0.119161   -0.846013  -1.60575e-05
3090   0.0130018    0.119276  -0.0448596  3.7668e-05
3100   0.0121202    0.118489   -0.393561   7.032e-05
3110   0.0115954    0.118021   -0.147227  3.57446e-06
3120   0.0120487    0.118425   -0.701885  -7.79396e-06
3130   0.0117513     0.11816    -0.51726  -4.60185e-06
3140   0.0121408    0.118507   -0.414532  -1.29212e-06
3150   0.0117771    0.118183   -0.804774  1.34445e-05
3160   0.0118719    0.118267   0.0784378  -2.26754e-05
3170   0.0122306    0.118587   -0.948982  -1.44916e-05
3180   0.0121617    0.118526   -0.188908  1.01853e-05
3190   0.0120269    0.118406  -0.0864404  1.51784e-05
3200   0.0118582    0.118255    0.303921  -2.61577e-05
3210   0.0125501    0.118872   0.0366566  -7.94092e-06
3220    0.012017    0.118397   -0.189289  -9.71477e-06
3230   0.0127444    0.119046    0.611303  -2.29564e-05
3240   0.0124761    0.118806    0.344459  -8.11294e-06
3250   0.0129066    0.119191    0.426357  1.91666e-06
3260   0.0124378    0.118772    0.693421  4.02827e-05
3270    0.012101    0.118472   0.0565845  2.03321e-05
3280   0.0120311    0.118409    0.487764  3.38151e-05
3290   0.0114247    0.117868     0.69322  1.03986e-05
3300   0.0118232    0.118224      1.0836  8.80426e-06
3310   0.0112486    0.117711    0.816438  5.92468e-05
3320   0.0106382    0.117166    0.384877  4.51691e-07
3330   0.0112395    0.117703   -0.190492  -7.87916e-05
3340    0.012214    0.118573    0.117531  5.5145e-06
3350   0.0111293    0.117605   -0.108394  6.97059e-05
3360   0.0108199    0.117329    0.569461  4.62418e-05
3370   0.0102044    0.116779    0.590031  7.35108e-05
3380  0.00934971    0.116017  -0.00544556  5.16085e-05
3390  0.00917224    0.115858    0.281848  2.45725e-05
3400  0.00885826    0.115578    0.487263  2.8051e-05
3410  0.00861122    0.115358    0.733658  8.24081e-07
3420  0.00884178    0.115563     1.30852  9.40878e-06
3430  0.00842305     0.11519    0.528062  4.87801e-05
3440  0.00786618    0.114693    0.877324  2.48956e-05
3450  0.00792514    0.114745   -0.314191  -2.46353e-06
3460  0.00791545    0.114737   -0.540657  7.85198e-06
3470   0.0077681    0.114605   -0.478668  7.87119e-06
3480  0.00775803    0.114596    -0.86917  3.20675e-05
3490  0.00712675    0.114033   -0.992388  -2.47401e-06
3500  0.00780751    0.114641    -0.39673  -4.39369e-05
3510  0.00800548    0.114817   -0.684404  2.00683e-05
3520  0.00740614    0.114282   -0.397011  4.78642e-05
3530   0.0070482    0.113963   -0.417761  1.05123e-06
3540  0.00738512    0.114264   -0.767004  -2.85156e-05
3550  0.00761851    0.114472   -0.767044   4.469e-05
3560  0.00649132    0.113466   -0.951549  6.74386e-05
3570  0.00626974    0.113268   -0.972319  4.69708e-06
3580  0.00639737    0.113382    -1.03405  3.98181e-05
3590  0.00547338    0.112558   -0.767145  6.79546e-05
3600  0.00503828    0.112169    -1.75294  3.12359e-06
3610  0.00541091    0.112502    -1.17806  1.72987e-05
3620  0.00469231    0.111861   -0.767566  2.60925e-05
3630  0.00488906    0.112036    -1.19909  -2.73436e-07
3640  0.00469778    0.111866    -1.07555  5.10191e-05
3650  0.00386868    0.111126    -1.93829  6.81328e-06
3660  0.00456151    0.111744    -1.60988  -9.01549e-06
3670  0.00404899    0.111287    -1.83568  2.64253e-05
3680  0.00403301    0.111272    -1.11693  3.36644e-05
3690   0.0033757    0.110686    -1.17888  6.04846e-05
3700  0.00282331    0.110193    -1.38437  3.2103e-05
3710  0.00273364    0.110113     -1.6104  1.61348e-05
