Time   C(t)   
ps   
0           1           1  2.58138e-10   0.0154339
10    0.847902    0.866869    -1.96484  0.00859575
20    0.828085    0.849523    -1.43482  0.00175756
30    0.812751    0.836101    -3.98774   0.0015051
40    0.797983    0.823175    -3.98857  0.00138889
50    0.784973    0.811787     -1.4371  0.00142762
60    0.769431    0.798183  -0.0535474  0.00132876
70    0.758398    0.788526    -1.86247  0.00111037
80    0.747223    0.778745    -3.67212  0.00107069
90    0.736984    0.769783    -3.14106  0.00100695
100    0.727084    0.761117    -4.09894  0.000937012
110    0.718244     0.75338    -3.99356  0.000896925
120    0.709146    0.745416    -4.20629  0.000922781
130    0.699789    0.737225    -2.07957  0.000726041
140    0.694625    0.732706    -1.86725  0.000727752
150    0.685234    0.724485    -3.35598  0.000819454
160    0.678236     0.71836    -4.20681  0.00057978
170    0.673638    0.714336     -2.4007  0.000569013
180    0.666856    0.708399    -4.63519  0.000824097
190    0.657156    0.699909    -4.63301  0.000783238
200    0.651191    0.694688    -3.25174  0.00059109
210    0.645334    0.689562    -3.14657  0.000561965
220    0.639951     0.68485    -4.63685  0.000496325
230    0.635408    0.680873    -3.99906  0.000503483
240    0.629882    0.676036    -2.72234  0.000474033
250    0.625927    0.672574    -5.48977  0.000627387
260    0.617334    0.665053    -6.33873  0.000567463
270    0.614578    0.662641    -5.06399  0.000446835
280    0.608397    0.657231    -5.48883  0.000588107
290    0.602816    0.652345    -6.23481  0.00038138
300     0.60077    0.650554    -4.53428  0.00042522
310    0.594311    0.644901    -3.89545  0.000615877
320    0.588452    0.639773    -4.95902  0.000561973
330    0.583072    0.635063    -4.53417  0.000501728
340    0.578418     0.63099    -4.21544  0.000490504
350    0.573262    0.626477    -3.04524  0.00038687
360     0.57068    0.624217    -4.85416  0.000406286
370    0.565136    0.619364    -4.53604  0.00045014
380    0.561677    0.616337    -4.00395  0.000321525
390    0.558705    0.613736    -5.06928  0.000464401
400    0.552389    0.608207     -5.4932  0.000483748
410     0.54903    0.605267    -3.89794  0.000218579
420    0.548018    0.604381    -5.07022  0.00026257
430    0.543779    0.600671    -4.64558  0.000430509
440    0.539408    0.596844    -5.07022  0.000381702
450    0.536145    0.593988    -5.07074  0.000332814
460    0.532751    0.591018    -5.70915  0.000383309
470    0.528479    0.587278    -4.64475  0.000415233
480    0.524447    0.583749    -5.70936  0.000422359
490    0.520032    0.579884    -5.38937  0.000373268
500    0.516981    0.577215    -5.17778  0.000430393
510    0.511424     0.57235    -6.02799  0.000443697
520    0.508107    0.569447     -6.0282  0.000313169
530     0.50516    0.566868    -4.86008  0.000420471
540    0.499698    0.562086    -4.96473  0.000421235
550    0.496736    0.559494    -5.92261  0.000315391
560     0.49339    0.556565    -7.73122  0.000278293
570     0.49117    0.554622    -7.20006  0.000348239
580    0.486425    0.550469    -7.30607  0.000361438
590    0.483941    0.548294    -8.05131  0.000261347
600    0.481198    0.545894    -7.62615  0.000432511
610    0.475291    0.540723    -7.41363  0.000395289
620    0.473293    0.538974    -6.35016  0.000345685
630    0.468377    0.534671    -4.22291  0.000371629
640     0.46586    0.532468    -5.18017  0.000283714
650    0.462703    0.529705    -4.96785  0.000227112
660    0.461318    0.528492    -5.92614  0.000234041
670    0.458022    0.525608     -6.2454  0.000444543
680    0.452427     0.52071    -5.92531  0.000419892
690    0.449624    0.518257    -4.86143  0.000223152
700    0.447964    0.516804    -5.71362  0.000198136
710    0.445662    0.514788    -6.35213  0.000288041
720    0.442203    0.511761     -6.6716  0.000339814
730    0.438865     0.50884    -6.13992  0.000353366
740    0.435136    0.505575    -6.35213  0.000270718
750    0.433451    0.504101    -4.86372  0.000226463
760    0.430607    0.501611    -5.07635  0.000265472
770    0.428142    0.499453    -4.33203  0.000246762
780    0.425671    0.497291    -3.69466  0.000356814
790    0.421005    0.493207     -3.3753  0.000312325
800    0.419425    0.491823    -2.52519  0.000248605
810    0.416033    0.488855    -3.16339  0.00041064
820    0.411212    0.484635    -3.90823  0.000404988
830    0.407933    0.481765    -4.22707  0.000211637
840    0.406979     0.48093    -4.33442  0.000153846
850    0.404856    0.479072    -3.90927  0.000368343
860    0.399612    0.474482    -4.54737  0.00044698
870    0.395917    0.471247    -4.44063  0.000350453
880    0.392603    0.468347    -4.97242  0.000279613
890    0.390325    0.466352    -4.22894  0.000293308
900    0.386737    0.463212    -4.44167  0.000326508
910    0.383794    0.460636    -4.97315  0.000294596
920    0.380845    0.458055    -4.12252  0.000334497
930    0.377104    0.454781    -4.33525  0.00038105
940    0.373224    0.451384    -3.59073  0.000250748
950     0.37209    0.450391    -4.01776  0.000179246
960    0.369639    0.448246    -4.65597  0.000337283
970    0.365344    0.444486    -4.12377  0.000324772
980    0.363144    0.442561     -6.1449  0.000174132
990    0.361861    0.441438    -6.03983  0.00029325
1000    0.357279    0.437427    -5.72037  0.000386119
1010    0.354139    0.434679    -5.61353  0.000314373
1020    0.350991    0.431924    -5.61333  0.000282007
1030    0.348499    0.429742     -5.9331  0.000322397
1040    0.344544     0.42628    -5.50722  0.00034956
1050    0.341507    0.423623    -6.25195  0.000224288
1060    0.340058    0.422354    -5.29521  0.000191654
1070    0.337674    0.420267     -5.2949  0.000225298
1080    0.335552     0.41841    -5.29531  0.000232477
1090    0.333025    0.416198    -6.25257  0.000246301
1100    0.330626    0.414098    -6.46562  0.000320289
1110    0.326619    0.410591    -6.46562  0.000367697
1120    0.323272    0.407661    -6.35941  0.000315036
1130    0.320318    0.405076    -6.04025  0.000255501
1140    0.318162    0.403188    -6.25319  0.00018238
1150    0.316671    0.401883    -6.57276  0.000182828
1160    0.314505    0.399988    -6.78529  0.000243674
1170    0.311797    0.397617    -6.46624  0.000324924
1180    0.308007    0.394299    -7.21066  0.000264987
1190    0.306498    0.392978     -7.4236  0.000164583
1200    0.304715    0.391418    -6.78591  0.00017169
1210    0.303064    0.389973    -5.93508  0.000246428
1220    0.299787    0.387104    -5.93456  0.000192772
1230    0.299208    0.386598    -5.93497  0.000132397
1240    0.297139    0.384787    -5.93539  0.000180092
1250    0.295606    0.383445    -4.23372  0.000173743
1260    0.293664    0.381745    -4.65887  0.000194499
1270    0.291716    0.380041    -3.91425  0.00013371
1280     0.29099    0.379404    -4.23382  0.000209029
1290    0.287536    0.376381     -3.4894  0.000250271
1300    0.285984    0.375023     -4.1273  0.000175846
1310    0.284019    0.373303    -5.08497  0.000155728
1320     0.28287    0.372297    -3.70255  0.000176658
1330    0.280486     0.37021    -3.06414  0.000163285
1340    0.279604    0.369438    -2.63898  0.000122598
1350    0.278034    0.368064    -2.21403  0.000260195
1360      0.2744    0.364883    -2.95793  0.000219424
1370    0.273645    0.364223    -2.21372  0.000123724
1380    0.271925    0.362718    -1.36382  0.000151527
1390    0.270615     0.36157    -2.85255  0.000186406
1400    0.268197    0.359454    -2.85276  0.000283477
1410    0.264945    0.356608    -2.63961  0.000284092
1420    0.262516    0.354481    -2.95907  0.000229414
1430    0.260357    0.352592    -2.42718  0.000257684
1440    0.257362     0.34997    -2.21455  0.00023742
1450    0.255609    0.348435    -2.42729  0.000224161
1460    0.252879    0.346046     -3.1716  0.000182892
1470    0.251951    0.345234    -3.70401  0.000113784
1480    0.250603    0.344054    -3.38506  0.000141913
1490    0.249113    0.342749    -2.95928  0.000184117
1500    0.246921    0.340831    -3.17222  0.00012161
1510     0.24668     0.34062    -2.85369  8.00319e-05
1520     0.24532     0.33943    -2.85359  0.00019925
1530    0.242695    0.337132     -2.9597  0.000220685
1540    0.240906    0.335566    -2.32232  0.000179122
1550    0.239113    0.333997     -2.2158  0.000193615
1560    0.237034    0.332177    -2.53516  0.000208136
1570     0.23495    0.330353    -3.38548  0.000152244
1580    0.233989    0.329512    -1.36579  0.000202062
1590    0.230909    0.326816    -1.79064  0.00023068
1600    0.229375    0.325474    -1.89727  0.000203026
1610    0.226848    0.323262    -1.15264  0.000224691
1620    0.224882     0.32154    -1.79074  0.000182737
1630    0.223194    0.320063    -2.21632  0.000183183
1640    0.221218    0.318333    -2.96084  0.000233346
1650    0.218527    0.315978    -2.74821  0.000262329
1660    0.215971    0.313741    -1.89685  0.000213099
1670    0.214265    0.312247    -2.53506  0.000199404
1680    0.211983     0.31025    -2.96042  0.00014986
1690    0.211268    0.309624    -2.74748  0.000136016
1700    0.209263    0.307869    -3.17274  0.000193531
1710    0.207397    0.306236    -2.00338  0.000136673
1720     0.20653    0.305477    -3.81147  0.000137071
1730    0.204656    0.303836    -2.42843  0.000173256
1740    0.203064    0.302444    -3.06684  0.000209657
1750    0.200462    0.300166      -2.854  0.000174101
1760    0.199582    0.299396    -4.13031  8.08947e-05
1770    0.198844     0.29875    -3.49242  0.000102757
1780    0.197527    0.297597    -3.59977  0.000110202
1790     0.19664    0.296821    -3.49283  0.000110502
1800    0.195317    0.295662    -3.28041  6.00271e-05
1810     0.19544     0.29577    -4.13218  0.000103779
1820    0.193242    0.293846    -3.38714  0.000227363
1830    0.190893     0.29179    -2.74862  3.88473e-05
1840    0.192465    0.293166    -2.00483  6.83025e-05
1850    0.189527    0.290594     -3.7065  9.7359e-05
1860    0.190518    0.291461    -3.49387  -4.34145e-06
1870    0.189613     0.29067     -3.6005  0.000141678
1880    0.187684    0.288981    -3.06934  0.000200494
1890    0.185604     0.28716    -3.81344  0.000142375
1900    0.184836    0.286489    -3.06913  0.000113475
1910    0.183334    0.285174    -2.74997  0.000209177
1920    0.180653    0.282827    -2.96281  0.000187559
1930    0.179583     0.28189    -3.06944  0.00010715
1940     0.17851    0.280951    -3.28217  0.000181128
1950     0.17596    0.278719    -3.28165  5.60157e-05
1960     0.17739     0.27997    -2.21902  4.90151e-05
1970     0.17498    0.277861    -2.85691  0.000189475
1980      0.1736    0.276653    -2.11198  5.66721e-05
1990    0.173847    0.276869     -2.6449  0.000101417
2000    0.171572    0.274878     -2.1127  0.000198058
2010    0.169885    0.273402    -2.11291  0.000124233
2020    0.169087    0.272703    -2.64459  0.000146926
2030    0.166947     0.27083     -2.7508  0.000124857
2040     0.16659    0.270518    -1.26218  8.0502e-05
2050    0.165337    0.269421    -1.89997  0.000132958
2060    0.163931     0.26819    -1.89966  0.000163213
2070    0.162073    0.266563    -2.00608  0.000118645
2080    0.161558    0.266113    -1.58113  0.000104028
2090    0.159992    0.264742    -2.21912  0.00019436
2100    0.157671    0.262711     -2.7506  0.000142159
2110    0.157149    0.262254    -2.32544  8.23885e-05
2120    0.156023    0.261268    -3.60206  0.000240898
2130    0.152331    0.258037    -2.53755  0.000286639
2140     0.15029     0.25625    -2.00597  9.85026e-05
2150    0.150361    0.256312     -2.1125  0.000114024
2160     0.14801    0.254254    -2.32492  0.000174785
2170    0.146865    0.253252    -2.32502  0.000122195
2180    0.145566    0.252115     -2.1127  9.21175e-05
2190    0.145023     0.25164     -3.9209  0.000115222
2200    0.143261    0.250098     -2.7506  0.00019922
2210    0.141038    0.248152    -2.53745  0.00018445
2220    0.139572    0.246869     -2.2184  2.46048e-05
2230    0.140546    0.247721    -1.58175  6.30602e-05
2240    0.138311    0.245765    -1.90049  0.000300362
2250    0.134539    0.242463    -1.89955  0.000178375
2260    0.134744    0.242642    -2.00649  9.46619e-05
2270    0.132646    0.240806    -1.90028  0.000186994
2280    0.131004    0.239369    -1.15545  8.74512e-05
2290    0.130897    0.239275    -2.85774  6.46621e-05
2300     0.12971    0.238237    -2.21954  0.000242231
2310    0.126052    0.235035    -2.00608  0.000142262
2320    0.126865    0.235747    -1.90038  3.67165e-06
2330    0.125979    0.234971    -1.58144  6.55383e-05
2340    0.125554    0.234599    -2.00753  0.000120043
2350    0.123578    0.232869    -1.58154  0.000120253
2360    0.123149    0.232494     -1.3686  0.000136217
2370    0.120853    0.230484   -0.943439  0.000276623
2380    0.117617    0.227652    -1.79376  0.000160328
2390    0.117647    0.227678     -2.0068  0.000121922
2400    0.115179    0.225517    -1.26166  0.000192444
2410    0.113798    0.224309    -1.47471  7.56081e-05
2420    0.113666    0.224194    -1.26259  0.000115077
2430    0.111497    0.222294    -2.53869  0.000162337
2440     0.11042    0.221352    -1.68806  0.000147125
2450    0.108554    0.219719    -1.68765  0.00013172
2460    0.107785    0.219046    -1.68827  0.000147906
2470    0.105596    0.217129   -0.837124  0.000140313
2480    0.104979     0.21659    -2.75205  0.000109183
2490    0.103412    0.215218    -2.22027  0.000109414
2500    0.102791    0.214674    -2.11405  7.0158e-05
2510    0.102009     0.21399    -2.85878  0.000149667
2520   0.0997974    0.212054    -3.28384  0.000157911
2530   0.0988508    0.211226    -2.85837  -1.65671e-05
2540    0.100129    0.212344    -2.75257  -4.83204e-05
2550   0.0998172    0.212071    -2.43352  6.30956e-05
2560   0.0988668     0.21124    -2.43414  0.000167043
2570   0.0964764    0.209147    -2.85909  0.000111418
2580   0.0966384    0.209289    -3.07193  7.18538e-05
2590   0.0950393    0.207889     -4.0295  0.00015211
2600   0.0935962    0.206626    -2.96614  0.000120419
2610   0.0926309    0.205781    -3.28487  0.00012078
2620   0.0911806    0.204512    -3.39109  0.000129123
2630   0.0900485    0.203521    -3.49771  0.00011337
2640   0.0889132    0.202527    -3.07287  9.75356e-05
2650   0.0880978    0.201813    -2.96645  0.00019483
2660   0.0850166    0.199116    -2.75351  0.000243776
2670   0.0832223    0.197546    -3.39129  0.000106726
2680   0.0828821    0.197248    -3.81728  0.000123353
2690   0.0807552    0.195386    -2.96593  0.000172337
2700   0.0794353    0.194231    -3.39181  0.000148447
2710   0.0777863    0.192788    -3.07214  0.000140679
2720   0.0766218    0.191768    -2.96582  0.000124778
2730   0.0752907    0.190603    -2.85951  0.00011694
2740    0.074283    0.189721    -2.22151  0.000141836
2750    0.072454     0.18812    -2.75288  0.000142172
2760   0.0714395    0.187232    -2.96562  5.23422e-05
2770   0.0714071    0.187204    -2.64688  8.54302e-05
2780   0.0697309    0.185737    -2.32762  0.000151392
2790   0.0683793    0.184554    -2.32731  0.000102389
2800   0.0676831    0.183945    -3.49771  6.1455e-05
2810   0.0671502    0.183478    -3.60465  0.000127747
2820   0.0651282    0.181708    -3.07245  0.000144555
2830   0.0642591    0.180947    -3.17856  2.90211e-05
2840   0.0645478      0.1812    -3.49803  1.25807e-05
2850   0.0640075    0.180727    -3.49834  4.57998e-05
2860   0.0636318    0.180398    -3.81739  9.5873e-05
2870     0.06209    0.179049    -2.96697  0.000179396
2880   0.0600439    0.177258    -3.60486  6.30317e-05
2890   0.0608294    0.177945       -4.35  2.99811e-05
2900   0.0594443    0.176733    -2.75423  0.000147077
2910   0.0578878    0.175371    -3.71149  8.8813e-05
2920    0.057668    0.175178     -3.6058  4.7194e-05
2930   0.0569439    0.174545    -4.13748  1.36746e-05
2940   0.0573945    0.174939    -4.13779  9.79617e-05
2950   0.0549847     0.17283    -3.92495  9.80375e-05
2960   0.0554338    0.173223    -3.60621  3.09942e-05
2970   0.0543648    0.172287    -2.43591  0.000123957
2980   0.0529546    0.171053    -3.81863  8.19642e-05
2990   0.0527255    0.170852    -2.96832  0.000124662
3000   0.0504614     0.16887    -2.64906  3.99869e-05
3010   0.0519258    0.170152    -3.60704  -2.13832e-06
3020   0.0505042    0.168908    -3.50041  0.000142373
3030   0.0490783     0.16766    -2.33032  5.75287e-05
3040   0.0493536    0.167901    -2.54357  6.63506e-05
3050   0.0477513    0.166498    -2.64968  0.000109161
3060   0.0471704     0.16599    -2.86263  5.81766e-05
3070   0.0465878     0.16548    -2.43736  0.000135509
3080   0.0444602    0.163618    -2.22411  0.000127207
3090   0.0440436    0.163253    -2.33063  4.17065e-05
3100    0.043626    0.162887    -2.43695  2.46024e-05
3110   0.0435516    0.162822    -2.64968  7.64467e-05
3120   0.0420971    0.161549    -2.54326  0.000119749
3130   0.0411566    0.160726    -2.64979  6.82436e-05
3140   0.0407322    0.160354    -2.33042  -1.81409e-05
3150   0.0415194    0.161043    -2.86304  -7.57538e-07
3160   0.0407474    0.160368    -2.96936  0.000172878
3170   0.0380619    0.158017    -2.54368  0.000155842
3180   0.0376306     0.15764    -2.01179  3.44805e-05
3190   0.0373723    0.157413    -2.54378  3.45964e-05
3200   0.0369386    0.157034    -2.22484  3.46901e-05
3210   0.0366785    0.156806    -1.90568  7.85586e-05
3220   0.0353675    0.155659    -1.58653  5.24163e-05
3230   0.0356301    0.155889    -2.01241  0.000122914
3240   0.0329092    0.153507    -2.86304  0.000131846
3250   0.0329932     0.15358    -2.22504  4.44099e-05
3260    0.032021    0.152729    -2.22525  0.000176714
3270   0.0294589    0.150487    -2.22473  9.76502e-05
3280    0.030068     0.15102    -2.54441  6.28069e-05
3290   0.0282028    0.149387    -1.69315  8.05222e-05
3300   0.0284575     0.14961    -2.33167  6.31867e-05
3310   0.0269391    0.148281    -2.22525  0.000152067
3320   0.0254162    0.146948    -1.48052  7.24536e-05
3330     0.02549    0.147013    -2.33177  9.0615e-05
3340   0.0236039    0.145362    -2.33167  9.07418e-05
3350   0.0236752    0.145424    -1.90641  0.000109033
3360   0.0214232    0.143453    -1.79968  0.000118137
3370   0.0213124    0.143356    -2.22567  7.38377e-05
3380   0.0199465    0.142161    -2.01283  4.70325e-05
3390   0.0203718    0.142533    -1.79989  2.93368e-05
3400   0.0193597    0.141647    -2.11925  0.000119359
3410   0.0179846    0.140443    -1.48104  0.00010165
3420   0.0173267    0.139868    -1.05557  0.000102019
3430   0.0159442    0.138658    -1.58715  9.32333e-05
3440   0.0154621    0.138236   -0.523683  2.99281e-06
3450   0.0158843    0.138605    -1.05609  9.38002e-05
3460   0.0135861    0.136593   -0.523891  0.000130222
3470   0.0132799    0.136325   -0.843252  3.97692e-05
3480   0.0127907    0.135897   -0.417679  2.16487e-05
3490   0.0128469    0.135946   -0.099147  6.74001e-05
3500   0.0114427    0.134717  -0.0989402  0.000122353
3510   0.0103999    0.133805   -0.631037  0.000141073
3520  0.00862124    0.132248   -0.311676  0.000159795
3530  0.00720397    0.131007  0.00747928  5.00951e-05
3540  0.00761934    0.131371   -0.737872  0.000151584
3550  0.00417228    0.128354  -0.0990435  0.000262317
3560  0.00237299    0.126779     0.43243  0.000143303
3570  0.00130622    0.125845  -0.0995635  7.91093e-05
3580  0.000790803    0.125394   -0.312403  0.000162706
3590  -0.0019479    0.122997  0.00716736  0.000153772
3600  -0.00228464    0.122702   -0.205775  3.37239e-05
3610  -0.00262237    0.122406     -0.8445  0.000145435
3620  -0.00519334    0.120156    0.113483  0.000155033
3630  -0.00572303    0.119692   -0.950296  6.23835e-05
3640  -0.00644101    0.119064   -0.418822  6.25648e-05
3650  -0.00697433    0.118597   -0.418718  8.14952e-05
3660  -0.00807092    0.117637  -0.0996672  9.10832e-05
3670  -0.00879599    0.117002    -0.41851  2.56783e-05
3680  -0.00858448    0.117188    0.325803  7.02543e-06
3690  -0.0089365    0.116879  0.00664865  3.52599e-05
3700  -0.00928968     0.11657   -0.206294  3.53709e-05
3710  -0.00964392     0.11626    0.112756  5.43801e-05
