Time   C(t)   
ps   
0           1           1  1.28696e-10   0.0658184
10    0.354435    0.843536    0.240861   0.0341364
20    0.317273    0.834529    -1.69778  0.00245431
30    0.305349    0.831639   -0.834262  0.00164163
40     0.28444    0.826571     1.17209  0.00193183
50    0.266712    0.822275    -1.14582  0.00139593
60    0.256522    0.819805   -0.281726  0.000795449
70    0.250803    0.818419    -2.46371  0.000790212
80    0.240717    0.815974   -0.664234  0.000967463
90    0.231454    0.813729   -0.560663  0.000251362
100     0.23569    0.814756    0.614248  0.000795191
110     0.21555    0.809875    0.718731  0.00114119
120    0.212866    0.809224     2.41217  0.000904272
130    0.197465    0.805491    0.580141  0.00094796
140    0.193907    0.804629    -1.49713  0.000660326
150    0.184258    0.802291    -1.87791  0.000257559
160    0.188756    0.803381    -1.49855  0.000266006
170    0.178938    0.801001    -1.80872  0.000684585
180    0.175064    0.800062      -2.052  0.000735972
190    0.164219    0.797434    -1.35857  0.000822391
200    0.158616    0.796076   -0.909571  -0.000307617
210    0.170371    0.798925    -1.53546  6.33262e-05
220     0.15735    0.795769   0.0573856  0.000625686
230    0.157857    0.795892    -1.43206  0.000456255
240    0.148225    0.793557   -0.185756  0.00059256
250    0.146006    0.793019    -1.29238  0.000536907
260    0.137487    0.790955    0.541236  0.000501838
270    0.135969    0.790587    0.194962  -0.000106277
280    0.139612     0.79147   -0.394419  0.000396188
290    0.128046    0.788666    -1.84685  0.000640515
300    0.126802    0.788365   0.0899386  0.000592154
310    0.116203    0.785796   0.0214878  0.00025446
320    0.121713    0.787132     -0.7749  4.67017e-05
330    0.115268     0.78557    0.262703  0.000327623
340     0.11516    0.785543    0.850801  0.000162508
350    0.112018    0.784782    -0.35967  0.000386805
360    0.107424    0.783668    0.538904  0.000517823
370    0.101662    0.782272   -0.152088  0.000192782
380    0.103569    0.782734    -1.05428  -5.30343e-05
390    0.102723    0.782529    -1.50324  0.000440467
400   0.0947592    0.780599    0.849855   0.0005064
410   0.0925945    0.780074   -0.742314  0.000107617
420   0.0926068    0.780077  -0.0851912  0.000326504
430   0.0860645    0.778492   -0.984779  0.000210132
440   0.0884042    0.779059    -0.12065  0.000262108
450   0.0808223    0.777221    0.848841  0.000466744
460   0.0790693    0.776796    0.883759  -0.000197553
470   0.0847733    0.778179    0.847659  0.000285668
480    0.073356    0.775411    0.849179  0.000461272
490   0.0755479    0.775943     2.43989  5.20997e-05
500    0.072314    0.775159     1.98995  0.000110679
510   0.0733343    0.775406     1.57472  -0.000337338
520   0.0790607    0.776794     2.19615  0.000118463
530   0.0709651    0.774832       2.301  0.000324291
540   0.0725749    0.775222      1.7461  0.000281278
550   0.0653395    0.773468     3.47746  3.76761e-05
560   0.0718214    0.775039     2.54151  -0.000153643
570   0.0684123    0.774213     1.50441  0.00057805
580   0.0602604    0.772237    0.743919  -7.27821e-05
590    0.069868    0.774566     1.50302  -0.000205558
600   0.0643715    0.773234    0.777215  0.000765631
610   0.0545554    0.770855     1.64381  0.000276631
620   0.0588389    0.771893    0.812268  -0.000257608
630   0.0597075    0.772103     1.78139  5.44727e-05
640   0.0577495    0.771629    0.188678  0.000136379
650   0.0569799    0.771442     2.57629  -0.000184174
660   0.0614329    0.772522      1.6067  -0.000468183
670   0.0663436    0.773712      1.7104  -0.000192388
680   0.0652807    0.773454     2.81771  -0.000290439
690   0.0721524     0.77512     1.57033  -0.000103363
700    0.067348    0.773955     1.67552  0.000413489
710   0.0638826    0.773115     1.32995  0.000271774
720   0.0619125    0.772638    0.984864  -0.000193692
730   0.0677565    0.774054     2.57524  0.000265465
740   0.0566032    0.771351     1.88438  -0.000134337
750   0.0704432    0.774705    0.636867  -0.000729148
760   0.0711861    0.774886     1.12126  6.15556e-05
770   0.0692121    0.774407     3.61271  0.000333624
780   0.0645137    0.773268     1.67724  -5.18538e-05
790   0.0702492    0.774658     2.60894  -0.000884745
800   0.0822086    0.777557     2.47072  -0.000309781
810   0.0764448     0.77616     2.57544  0.000288349
820   0.0764416    0.776159     1.26035  0.000327242
830   0.0698999    0.774574      1.6069  8.41316e-05
840    0.074759    0.775751    0.430029  -0.000235057
850   0.0746011    0.775713   -0.122677  -9.8592e-05
860   0.0767308    0.776229    0.672224  -5.27635e-05
870   0.0756563    0.775969     1.95229  -0.000374128
880   0.0842134    0.778043    0.602118  -0.000106658
890   0.0777895    0.776486     2.40153  -0.00010763
900    0.086366    0.778565     1.43167  -0.000283504
910   0.0834596     0.77786     1.39793  0.000252665
920   0.0813127     0.77734    0.913981  0.00020723
930    0.079315    0.776856      1.9864  -0.000207845
940   0.0854696    0.778347     1.63922  -0.000238708
950   0.0840892    0.778013     2.64261  0.000222994
960   0.0810097    0.777266     2.53887  0.00024659
970   0.0791574    0.776818     3.47219  0.000185355
980   0.0773026    0.776368    0.393219  -4.63694e-05
990   0.0800847    0.777042   -0.160568  -7.40215e-06
1000   0.0774506    0.776404    0.601476  1.55672e-05
1010   0.0797734    0.776967     2.01976  -0.000248042
1020   0.0824115    0.777606     0.77414  -0.000124279
1030    0.082259    0.777569     2.29651  -0.000241401
1040   0.0872395    0.778776     1.39641  -8.58899e-05
1050   0.0839768    0.777986     2.15727  0.000747666
1060   0.0722862    0.775152     1.01742  0.000264998
1070   0.0786768    0.776701    0.774512  -0.000319496
1080   0.0786761    0.776701    0.359754  0.000148823
1090   0.0757004     0.77598   -0.816879  -0.00017205
1100   0.0821171    0.777535   0.0812558  -0.000297559
1110   0.0816515    0.777422   -0.610548  0.000164611
1120   0.0788249    0.776737    0.462481  4.70828e-05
1130   0.0807099    0.777194    0.773127  -0.00015716
1140   0.0819681    0.777499   -0.369062  0.000338616
1150   0.0739376    0.775552   -0.956315  -6.33258e-05
1160   0.0832346    0.777806   -0.646311  -0.000244033
1170   0.0788182    0.776735    0.634232  0.000181432
1180   0.0796059    0.776926    0.634131  0.000166332
1190   0.0754916    0.775929     1.08381  -8.7107e-05
1200   0.0813481    0.777348    0.253919  -0.000142182
1210   0.0783352    0.776618    -1.68321  0.000563565
1220   0.0700768    0.774617   0.0120283  0.000389621
1230   0.0705428     0.77473   0.0811539  0.000128386
1240    0.067509    0.773994    0.634537  -0.000301555
1250   0.0765739    0.776191    0.667528  -0.000237725
1260   0.0722635    0.775147     1.11744  0.00072691
1270   0.0620357    0.772668    0.426245  0.000464568
1280   0.0629722    0.772895    0.530087  -0.000381998
1290   0.0696757    0.774519    0.494527  -0.000270458
1300   0.0683813    0.774206   0.0453241  0.000145613
1310   0.0667634    0.773814    0.389942  5.7596e-05
1320   0.0672294    0.773927    0.528397  0.00019454
1330   0.0628726    0.772871  -0.0592612  0.000154405
1340   0.0641413    0.773178     1.32327  0.000364586
1350   0.0555809    0.771103   -0.439979  0.000300325
1360   0.0581348    0.771722    0.284445  -5.26272e-06
1370   0.0556861    0.771129    0.563214  0.000374546
1380   0.0506439    0.769907    0.562876  0.000399483
1390   0.0476965    0.769192     1.08239  -0.000255899
1400   0.0557619    0.771147     1.56492  -9.35013e-05
1410   0.0495665    0.769646    0.908643  0.000376526
1420   0.0482314    0.769322   -0.786354  -0.000272991
1430   0.0550263    0.770969    -1.82588  0.000174719
1440    0.044737    0.768475  -0.0251874  0.000818173
1450   0.0386628    0.767003   -0.509916  0.000200024
1460   0.0407365    0.767506    -1.02879  -0.000183068
1470   0.0423242     0.76789    -1.72045  -0.000404389
1480   0.0488243    0.769466    -1.10021  -9.37963e-05
1490   0.0442001    0.768345   0.0761535  0.000405471
1500   0.0407149      0.7675    -0.85744  0.00028332
1510   0.0385337    0.766972    -1.30712  0.000234811
1520   0.0360186    0.766362    -0.57982  0.000218924
1530   0.0341553     0.76591    0.908507  -4.41929e-05
1540   0.0369025    0.766576   -0.823096  -0.000308023
1550   0.0403157    0.767404   -0.201264  -7.74177e-05
1560   0.0384509    0.766952    0.214811  -6.14079e-05
1570   0.0415439    0.767701    0.732735  -0.000144076
1580   0.0413324     0.76765    -1.30766  0.000220104
1590   0.0371418    0.766634    0.214541  0.000120848
1600   0.0389154    0.767064   -0.201027  0.000154626
1610   0.0340493    0.765885     1.59855  0.000154602
1620   0.0358234    0.766315    0.974964  0.00024707
1630   0.0291079    0.764687    0.907257  0.000455579
1640   0.0267118    0.764106     0.45748  -0.000177571
1650   0.0326593    0.765548   -0.303923  -0.000369689
1660   0.0341056    0.765898   -0.581712  -7.79465e-05
1670   0.0342182    0.765926   -0.858419  1.39318e-05
1680   0.0338269    0.765831    -1.10038  -2.80479e-05
1690   0.0347792    0.766062   -0.547098  -0.000170784
1700   0.0372426    0.766659   -0.996942  0.000232573
1710   0.0301277    0.764934   -0.616123  -2.84661e-05
1720   0.0378119    0.766797    0.109214  -0.000272093
1730   0.0355696    0.766253    0.974593  0.000460793
1740   0.0285961    0.764563   0.0750394  0.000123627
1750    0.033097    0.765654    0.939776  6.54656e-05
1760   0.0272868    0.764246      0.5597  0.000429265
1770   0.0245117    0.763573    -1.58507  -0.000180166
1780   0.0308901    0.765119   -0.167866  -0.00023941
1790   0.0292999    0.764734   -0.790476  9.11281e-05
1800   0.0290675    0.764677    0.316592  0.000227482
1810   0.0247503    0.763631    -0.99826  -0.000121635
1820   0.0315002    0.765267  0.00368268  -0.000470912
1830   0.0341685    0.765914    -1.20696  0.000219526
1840   0.0271097    0.764203   -0.894655  -2.96347e-06
1850   0.0342278    0.765928    0.210555  0.000280578
1860   0.0214982    0.762843   -0.202953  0.00028857
1870   0.0284564    0.764529   -0.584888  -0.000138715
1880   0.0242725    0.763515   -0.964524  0.000375973
1890    0.020937    0.762707     -0.3769  4.99231e-05
1900    0.023274    0.763273    -1.41467  -1.85429e-05
1910   0.0213078    0.762797   -0.100328  5.01813e-05
1920   0.0222704     0.76303  0.00385181  -0.000381395
1930   0.0289357    0.764645      1.0756  -0.000485693
1940   0.0319842    0.765384    0.833468  -2.26255e-06
1950    0.028981    0.764656  0.00256786  0.000474146
1960   0.0225013    0.763086    0.280897  0.000266769
1970   0.0236456    0.763363    0.626832  -0.000297005
1980   0.0284414    0.764526     1.24836  0.000163676
1990   0.0203721     0.76257    0.349246  0.000145859
2000   0.0255242    0.763819   -0.308349  -0.000201844
2010   0.0244089    0.763548    0.452007  0.000129161
2020    0.022941    0.763192    0.902223  0.00021687
2030   0.0200715    0.762497     1.00677  -0.000132936
2040   0.0255997    0.763837     1.00563  -0.000211558
2050   0.0243027    0.763523    0.971147  -0.000142305
2060   0.0284458    0.764527     2.07747  -0.000432437
2070   0.0329515    0.765619     2.70022  0.000200135
2080   0.0244431    0.763557     1.10991  0.000816648
2090   0.0166185     0.76166    0.729931  -0.000195893
2100    0.028361    0.764506    0.833806  -0.000539612
2110   0.0274107    0.764276     1.07495  9.50998e-05
2120    0.026459    0.764045    0.798415  -0.000205865
2130    0.031528    0.765274    0.659419  -0.000374485
2140   0.0339487     0.76586  -0.0671664  0.000228134
2150   0.0269654    0.764168      1.7335  -0.000127451
2160   0.0364977    0.766478    0.243953  -0.000313643
2170   0.0332382    0.765688     1.31749  5.0169e-05
2180   0.0354943    0.766235     1.93851  0.000211312
2190    0.029012    0.764664     2.38967  0.000255923
2200   0.0303759    0.764994    0.555646  -0.000226043
2210   0.0335328     0.76576   -0.482938  -0.00040573
2220   0.0384905    0.766961    0.519748  -4.78573e-05
2230     0.03449    0.765992    0.969896  5.92561e-05
2240   0.0373053    0.766674  -0.0336338  -3.07411e-06
2250   0.0345514    0.766006   -0.171008  -3.94098e-05
2260   0.0380935    0.766865     1.93908  -0.000489984
2270   0.0443511    0.768382     2.76823  -4.8718e-05
2280   0.0390679    0.767101     2.73358  -4.96034e-05
2290   0.0453432    0.768622     3.07938  -0.000230052
2300   0.0436689    0.768216     1.21091  4.9874e-05
2310   0.0443457     0.76838      1.6955  0.000267962
2320   0.0383097    0.766917    0.416109  0.000404512
2330   0.0362555    0.766419     1.24684  -0.000130968
2340   0.0409291    0.767552    0.484256  -0.000322201
2350   0.0426995    0.767981     2.04191  1.42638e-05
2360   0.0406438    0.767483     1.55627  -0.000123025
2370     0.04516    0.768578     1.90207  -0.000287513
2380    0.046394    0.768877    0.967532  2.29081e-05
2390   0.0447018    0.768467    0.656649  0.000288681
2400   0.0406204    0.767477   -0.311761  0.000473003
2410   0.0352418    0.766174     0.58732  -0.000141814
2420   0.0434567    0.768165   -0.485539  -3.08761e-05
2430   0.0358593    0.766323    -1.59234  0.000465785
2440    0.034141    0.765907    0.483445  0.000245939
2450   0.0309405    0.765131    -0.13859  0.000135555
2460   0.0314299     0.76525     1.31367  -1.19397e-05
2470   0.0311793    0.765189    0.621495   0.0001826
2480   0.0277779    0.764365     0.65648  0.000108601
2490   0.0290073    0.764663   -0.901818  -0.000188146
2500   0.0315408    0.765277   -0.139874  7.19335e-05
2510   0.0275686    0.764314    0.032891  0.000295345
2520   0.0256339    0.763845   -0.209304  0.000398967
2530   0.0195893     0.76238    -1.31573  0.000184838
2540   0.0219371    0.762949    -1.38597  -0.000338014
2550   0.0263496    0.764019   -0.867812  -8.58161e-05
2560   0.0236535    0.763365    0.413373  0.000204205
2570   0.0222655    0.763029    0.377813  0.000233052
2580   0.0189924    0.762235   -0.417596  0.000101949
2590   0.0202265    0.762535   -0.556896  0.000149536
2600   0.0160017    0.761511     1.13851  0.000149572
2610    0.017235     0.76181    0.308247  -0.000548465
2620    0.026971    0.764169   -0.176954  -7.65446e-05
2630   0.0187659    0.762181     1.00029  0.000499612
2640   0.0169788    0.761747    0.966011  -8.64801e-05
2650   0.0204955      0.7626   -0.419386  0.000132087
2660    0.014337    0.761107   0.0665589  -8.69596e-05
2670   0.0222347    0.763021    0.723309  -3.85736e-05
2680   0.0151085    0.761294   -0.002838  9.37595e-05
2690   0.0203595    0.762567    0.237634  -4.83738e-05
2700    0.016076    0.761529     1.31114  0.000314171
2710   0.0140761    0.761044      1.7958  -0.00012525
2720    0.018581    0.762136    0.273194  -0.000556507
2730   0.0252062    0.763741    0.375955  6.61419e-05
2740   0.0172581    0.761815    -1.07627  0.000372911
2750    0.017748    0.761934   0.0661192  -3.94588e-05
2760   0.0180473    0.762006   -0.903473  8.63206e-06
2770   0.0175754    0.761892   -0.280154  -0.000116877
2780   0.0203848    0.762573    -1.42282  -0.000455321
2790   0.0266818    0.764099    -1.04311  -0.000282127
2800   0.0260274    0.763941    -1.24985  -2.16538e-05
2810   0.0271149    0.764204    -2.21934  0.000162853
2820   0.0227703    0.763151    -1.25056  -7.03965e-05
2830   0.0285228    0.764545    -1.24988  -6.00429e-05
2840   0.0239712    0.763442      -1.285  -0.000148736
2850   0.0314975    0.765266     -1.2852  -0.000216698
2860   0.0283052    0.764493    -1.63124  -5.17797e-05
2870   0.0325331    0.765517      0.5137  8.5607e-05
2880    0.026593    0.764078    -2.18456  -0.000150126
2890   0.0355356    0.766245    -1.45939  -0.000227998
2900    0.031153    0.765183   -0.385955  0.000655148
2910   0.0224327    0.763069   -0.627069  0.000213612
2920   0.0268808    0.764147   -0.524613  -0.000208792
2930   0.0266085    0.764081   -0.662596  -0.000199754
2940   0.0308758    0.765116    -1.11264  5.70673e-05
2950   0.0254672    0.763805  -0.0400191  0.000234725
2960   0.0261813    0.763978    0.409318  -0.000299588
2970   0.0314589    0.765257     0.92741  -3.20073e-05
2980   0.0268215    0.764133   -0.421278  0.000185957
2990   0.0277398    0.764356    0.719964  -0.000231368
3000   0.0314488    0.765254   -0.283499  0.000127181
3010   0.0251962    0.763739     1.13499  1.7006e-05
3020   0.0311087    0.765172    -1.07908  1.79281e-05
3030   0.0248376    0.763652   -0.387577  0.000287451
3040   0.0253597    0.763779    -1.63317  0.000318831
3050    0.018461    0.762107    -1.70108  0.000309228
3060   0.0191751     0.76228    -0.35249  -0.000172124
3070   0.0219034    0.762941  -0.0760524  -0.000424334
3080   0.0276618    0.764337    -1.25326  -0.000142797
3090   0.0247594    0.763633    -1.87516  -0.000315585
3100   0.0339735    0.765866    -2.49966  5.85674e-05
3110    0.023588    0.763349    -1.90981  0.000675376
3120    0.020466    0.762593    -2.18624  -0.000164279
3130   0.0268736    0.764146    -1.63313  -0.000346879
3140   0.0274036    0.764274    -1.21841  -0.00035845
3150   0.0340426    0.765883    -3.29463  -7.38394e-05
3160   0.0288804    0.764632    -1.46131  0.000710888
3170   0.0198249    0.762437    -1.08036  0.000324328
3180   0.0223938     0.76306    -1.49498  -0.000625748
3190   0.0323398     0.76547    -1.28821  -0.000104199
3200   0.0244778    0.763565    -1.46104  0.000274073
3210   0.0268584    0.764142   -0.803989  0.000111011
3220   0.0222576    0.763027    -2.11874  0.000337288
3230   0.0201126    0.762507   -0.872204  0.000245705
3240   0.0173435    0.761836    -1.35687  0.000112167
3250   0.0178693    0.761963    -1.21919  -0.000280233
3260   0.0229481    0.763194   -0.596543  2.99416e-05
3270   0.0172704    0.761818    0.718072  -0.000209284
3280   0.0271338    0.764209   -0.805342  -0.000437257
3290   0.0260156    0.763938   -0.909386  0.000413648
3300   0.0188608    0.762204   -0.251486  0.000404008
3310   0.0179354    0.761979   -0.701365  -1.2666e-06
3320   0.0188862     0.76221    -1.87793  4.07131e-05
3330   0.0171212    0.761782    0.370853  0.000406947
3340   0.0107472    0.760237    0.163238  9.33414e-05
3350   0.0152543    0.761329    -1.56671  -0.000199508
3360   0.0147374    0.761204    -1.84382  -0.000116385
3370    0.017582    0.761894    -1.29007  0.000125742
3380   0.0122225    0.760595     -1.3591  7.27205e-05
3390   0.0161276    0.761541   -0.148422  5.25053e-05
3400   0.0111724     0.76034   -0.286337  0.000390544
3410  0.00831674    0.759648    0.232431  -0.000127242
3420   0.0137173    0.760957      -0.944  -0.000381604
3430   0.0159488    0.761498      -1.256  0.000254571
3440  0.00862587    0.759723    -1.73951  0.000158795
3450   0.0127729    0.760728   -0.702716  -0.000138211
3460   0.0113901    0.760393    0.958375  -0.000107089
3470   0.0149147    0.761247   -0.529614  0.00018158
3480  0.00775849    0.759513   -0.840631  2.07439e-05
3490   0.0144998    0.761147  -0.0810523  -0.000128275
3500    0.010324    0.760135     -1.0137  0.000375259
3510  0.00699464    0.759328  -0.0109463  0.00026897
3520   0.0049446    0.758831    -1.39462  9.75099e-05
3530  0.00504444    0.758855    -0.25321  -4.2324e-05
3540  0.00579108    0.759036    -1.74046  -0.000150433
3550  0.00805311    0.759584     -1.0495  -0.000118303
3560  0.00815714    0.759609    -1.22162  -0.000400713
3570   0.0160674    0.761527   -0.739087  -0.000466498
3580   0.0174871    0.761871    -1.01532  0.000281893
3590   0.0104295     0.76016   -0.183847  -0.000186203
3600   0.0212112    0.762773   -0.357929  -0.000109056
3610   0.0126106    0.760689   -0.149875  0.000697485
3620  0.00726147    0.759392   -0.979052  -0.000372357
3630   0.0200578    0.762494    -0.80818  -0.000415886
3640   0.0155792    0.761408    -1.08438  0.000327734
3650   0.0135031    0.760905     -2.5026  5.41531e-05
3660   0.0144961    0.761146   -0.912122  0.000219772
3670  0.00910764     0.75984     -1.7415  0.000242029
3680  0.00965557    0.759973     -3.3673  -0.000309007
3690   0.0152878    0.761338   -0.497364  -0.000176846
3700   0.0131925     0.76083   0.0568288  0.000619772
3710  0.00289234    0.758333   -0.980539  0.000410169
3720  0.00498911    0.758842   -0.635685  -0.000176624
3730  0.00642483    0.759189    -1.32796  -0.000244094
3740    0.009871    0.760025   -0.324566  -0.0002113
3750   0.0106508    0.760214    -1.84724  8.94804e-05
3760  0.00808139    0.759591    -1.01644  0.000413956
3770  0.00237172    0.758207    -2.40004  0.000157307
3780  0.00493525    0.758828   -0.808619  -4.35782e-05
3790  0.00324328    0.758418   -0.220556  0.000169529
3800  0.00154466    0.758007    -1.22402  0.000170083
3810  -0.000158377    0.757594    -1.15486  5.78788e-05
3820  0.000387088    0.757726   -0.531742  0.000205103
3830  -0.00426043      0.7566     -2.2963  8.08238e-05
3840  -0.00122939    0.757334    -0.77468  -4.29265e-05
3850  -0.0034019    0.756808   -0.982094  9.27389e-05
3860  -0.00308416    0.756885    -1.63979  -0.00013419
3870  -0.000718105    0.757458    -1.77899  -0.000510298
3880  0.00712179    0.759358    -2.78259  -0.000237688
3890  0.00403565     0.75861    -1.67579  0.000697583
3900  -0.00682987    0.755977   -0.913305  0.000447377
3910  -0.00491189    0.756442    -2.33305  -0.000639151
3920  0.00595314    0.759075     -1.6069  -0.000284439
3930  0.000776882    0.757821    -1.84862  0.000472351
3940  -0.00349388    0.756786    -1.43369  5.91453e-05
3950  -0.000406025    0.757534    -1.84906  0.000463916
3960  -0.0127722    0.754537    -1.74373  0.000776255
3970  -0.0159311    0.753771    -1.67494  -0.000679237
3980  0.000812541    0.757829    -1.29673  -0.000656648
3990  -0.00279815    0.756954    -1.19272  0.000559212
4000  -0.0103717    0.755119     -1.1919  0.000351306
4010  -0.00982427    0.755251    -2.95677  -8.97263e-05
4020  -0.00857718    0.755553    -2.23018  0.000423793
4030  -0.0183001    0.753197    -1.81479  0.00014351
4040  -0.0114474    0.754858    -2.95626  -0.000744875
4050  -0.00340264    0.756808    -1.15891  -0.000489123
4060  -0.00166492    0.757229    -2.75088  0.000378419
4070   -0.010971    0.754973   -0.638895  0.000449529
4080  -0.0106555     0.75505   -0.880718  0.000192364
4090  -0.0148183    0.754041    -2.12675  -6.72978e-05
4100  -0.00930955    0.755376    -2.05803  0.000288275
4110  -0.0205838    0.752643    -2.33443  0.000382649
4120  -0.0169625    0.753521    -3.13082  -0.000327156
4130  -0.0140407    0.754229    -1.92075  -0.000316458
4140  -0.0106334    0.755055   -0.398219  -0.000138764
4150  -0.0112654    0.754902    -1.64411  0.000445201
4160  -0.0195374    0.752897    -2.12688  -5.60467e-05
4170  -0.0101445    0.755174    -2.16281  -0.000210464
4180  -0.0153281    0.753917    -1.98965  0.000567377
4190   -0.021492    0.752423     -2.3007  -9.1583e-05
4200  -0.0134964    0.754361    -1.47091  -0.000247279
4210  -0.0165464    0.753622    -1.67815  0.000365926
4220   -0.020815    0.752587   -0.225826  0.000173846
4230  -0.0200233    0.752779    -1.88563  -3.08637e-05
4240  -0.0201977    0.752737    -2.19746  -0.000212862
4250  -0.0157661    0.753811    -1.81739  0.000138912
4260  -0.0229759    0.752064   -0.121073  -0.000299551
4270  -0.00977509    0.755263   -0.952852  0.000139883
4280  -0.0257736    0.751386    -1.09006  0.00015004
4290  -0.0127759    0.754536    -1.29848  -0.000262613
4300  -0.0205213    0.752659    -2.09369  -9.38456e-05
4310   -0.010899    0.754991    -1.43741  -0.000178604
4320  -0.0169493    0.753524   -0.918373  -0.000254436
4330  -0.00581026    0.756224    -2.02578  -0.000586289
4340  -0.00522348    0.756366    -2.37266  0.000397663
4350  -0.0137635    0.754296    -1.19525  -2.19244e-05
4360  -0.00478499    0.756473    -2.37323  -0.000540325
4370  -0.00295702    0.756916    -1.23094  0.000201193
4380  -0.00880884    0.755497    -1.36937  6.44696e-05
4390  -0.00424641    0.756603    -1.61149  -0.000257915
4400  -0.00365053    0.756748    -1.68113  0.000227064
4410  -0.00878769    0.755502    -1.78463  0.000152401
4420  -0.00669855    0.756009   -0.850969  0.000353839
4430  -0.0158645    0.753787   -0.919015  0.000178666
4440  -0.0102719    0.755143   -0.781539  -0.000434774
4450   -0.007169    0.755895    -1.54257  -0.000524672
4460  0.00022158    0.757686     -1.3356  0.000192339
4470  -0.0110158    0.754962    -1.92278  0.000431171
4480  -0.00840183    0.755596    -2.92692  -0.000299748
4490  -0.00502084    0.756415    -1.47402  -0.000262686
4500  -0.00314811    0.756869    -1.50921  0.000371017
4510  -0.0124412    0.754617    -2.61584  0.000434946
4520   -0.011847    0.754761    -2.44324  8.06762e-05
4530  -0.0140547    0.754226    -2.06259  0.00010624
4540  -0.0139718    0.754246    -2.37361  0.000119545
4550  -0.0164456    0.753646    -2.37405  -3.39256e-05
4560  -0.0132933     0.75441    -2.47779  5.63295e-05
4570  -0.0175722    0.753373    -2.58109  -8.49678e-06
4580  -0.0131234    0.754452    -2.51297  -0.000162275
4590  -0.0143267     0.75416    -2.89352  8.18198e-05
4600  -0.0147598    0.754055    -3.23902  -0.000590211
4610  -0.00252247    0.757021    -2.51375  -4.71318e-05
4620  -0.0138171    0.754283    -2.27058  0.000690353
4630  -0.0163295    0.753675    -1.37197  3.06425e-05
4640    -0.01443    0.754135    -2.23728  0.000148331
4650  -0.0192961    0.752956   -0.887712  0.000278696
4660  -0.0200039    0.752784    -1.99461  9.71164e-05
4670  -0.0212385    0.752485    -2.37543  1.88994e-05
4680  -0.0203819    0.752692    -1.92562  -9.89977e-05
4690  -0.0192585    0.752965    -2.58291  0.000308293
4700  -0.0265478    0.751198    -1.92494  0.000414042
4710  -0.0275393    0.750958   -0.783397  -0.000177756
4720  -0.0229927     0.75206    -1.89141  0.000192401
4730  -0.0313874    0.750025   -0.437901  0.000403861
4740  -0.0310699    0.750102    -1.58009  0.000246935
4750  -0.0363261    0.748828    -1.02647  0.000406984
4760  -0.0392095    0.748129   -0.784681  0.000142244
4770  -0.0391709    0.748139     -1.7874  0.000276606
4780  -0.0447417    0.746788    -2.02977  0.000156766
4790  -0.0423062    0.747379    -1.82289  0.000828268
4800   -0.061307    0.742773     -1.2327  0.000413046
4810  -0.0505672    0.745376    -1.51164  -0.000901136
4820  -0.0432843    0.747142   -0.404706  0.000160098
4830  -0.0537691      0.7446    -1.02671  0.000523762
4840  -0.0537595    0.744603    -1.44184  0.000134276
4850  -0.0564547     0.74395   -0.300426  1.24561e-05
4860  -0.0540087    0.744542   -0.508683  0.000203307
4870  -0.0605208    0.742964    -1.47702  2.62281e-05
4880  -0.0545332    0.744415   -0.232043  -0.000231589
4890   -0.055889    0.744087   -0.716704  0.000436421
4900  -0.0632617      0.7423    -1.40787  0.000670297
4910   -0.069295    0.740837   -0.889368  0.000138026
4920  -0.0660222    0.741631   -0.232752  -0.000341715
4930  -0.0624607    0.742494    -1.89317  0.000345711
4940  -0.0729364    0.739955   -0.370803  -6.83308e-05
4950  -0.0610941    0.742825   -0.890583  -0.000190913
4960  -0.0691181     0.74088    -2.13509  0.000513027
4970  -0.0713546    0.740338    -1.82452  1.58746e-05
4980  -0.0694356    0.740803   -0.440638  0.000211202
4990  -0.0755786    0.739314    -1.54679  0.000406529
