Time   Number   
ps   
0          32          34
10          33          33
20          27          35
30          29          32
40          29          39
50          27          36
60          30          38
70          27          38
80          29          33
90          28          33
100          29          31
110          29          33
120          30          36
130          30          34
140          29          35
150          30          32
160          29          33
170          28          36
180          30          35
190          29          38
200          29          34
210          27          37
220          28          35
230          31          34
240          31          25
250          30          32
260          30          37
270          29          32
280          26          33
290          29          31
300          32          27
310          28          36
320          30          30
330          29          39
340          30          31
350          31          31
360          27          34
370          27          38
380          28          30
390          31          34
400          33          33
410          30          29
420          33          35
430          30          39
440          29          35
450          33          38
460          30          36
470          30          36
480          30          28
490          30          36
500          32          33
510          27          35
520          31          33
530          34          33
540          28          33
550          32          39
560          32          35
570          30          37
580          31          36
590          29          33
600          29          37
610          32          35
620          33          28
630          29          39
640          33          36
650          30          33
660          33          32
670          30          31
680          35          30
690          30          35
700          35          32
710          34          31
720          33          31
730          36          33
740          32          33
750          27          30
760          29          31
770          32          36
780          30          29
790          29          35
800          33          27
810          31          32
820          31          31
830          27          38
840          32          27
850          33          27
860          30          36
870          33          27
880          33          31
890          31          35
900          29          36
910          32          35
920          31          32
930          31          28
940          33          30
950          32          30
960          30          31
970          33          31
980          33          32
990          30          30
1000          32          33
1010          27          32
1020          34          30
1030          30          33
1040          32          32
1050          36          28
1060          30          30
1070          35          29
1080          29          27
1090          31          28
1100          34          31
1110          28          37
1120          28          32
1130          31          30
1140          33          32
1150          29          36
1160          29          29
1170          30          25
1180          32          24
1190          28          30
1200          27          33
1210          28          32
1220          29          32
1230          27          33
1240          29          36
1250          32          28
1260          35          30
1270          30          33
1280          29          31
1290          32          31
1300          28          35
1310          30          32
1320          31          32
1330          31          27
1340          32          29
1350          31          32
1360          31          29
1370          30          35
1380          34          25
1390          30          33
1400          30          30
1410          33          26
1420          30          31
1430          29          32
1440          30          29
1450          28          34
1460          29          29
1470          31          31
1480          27          34
1490          33          28
1500          28          37
1510          31          33
1520          29          37
1530          33          25
1540          29          31
1550          29          29
1560          34          27
1570          29          29
1580          27          33
1590          32          36
1600          29          30
1610          33          33
1620          33          29
1630          30          34
1640          33          33
1650          29          33
1660          34          30
1670          33          32
1680          31          31
1690          33          34
1700          30          34
1710          35          31
1720          30          33
1730          33          32
1740          29          30
1750          33          30
1760          32          39
1770          29          29
1780          32          34
1790          30          35
1800          30          34
1810          34          28
1820          30          34
1830          32          32
1840          33          31
1850          30          34
1860          28          31
1870          30          31
1880          28          34
1890          31          31
1900          33          34
1910          28          34
1920          28          29
1930          30          33
1940          29          32
1950          31          28
1960          29          33
1970          28          36
1980          32          28
1990          27          30
2000          23          42
2010          32          32
2020          32          32
2030          31          31
2040          26          42
2050          28          35
2060          29          27
2070          30          36
2080          27          32
2090          27          35
2100          30          35
2110          31          26
2120          28          34
2130          30          33
2140          29          27
2150          29          27
2160          32          25
2170          31          31
2180          25          38
2190          27          29
2200          28          31
2210          30          28
2220          30          31
2230          32          32
2240          29          30
2250          29          31
2260          36          27
2270          30          34
2280          28          33
2290          30          30
2300          32          30
2310          32          34
2320          32          30
2330          30          41
2340          30          30
2350          32          34
2360          29          32
2370          29          34
2380          29          35
2390          31          28
2400          31          27
2410          34          32
2420          29          31
2430          30          29
2440          30          32
2450          27          34
2460          27          35
2470          33          27
2480          30          31
2490          34          33
2500          35          30
2510          32          35
2520          30          33
2530          33          27
2540          29          34
2550          31          39
2560          36          27
2570          34          30
2580          31          30
2590          32          32
2600          36          30
2610          30          34
2620          33          32
2630          30          33
2640          31          33
2650          30          28
2660          29          29
2670          29          32
2680          29          32
2690          29          30
2700          32          28
2710          28          31
2720          29          27
2730          28          32
2740          31          28
2750          30          28
2760          30          31
2770          31          35
2780          32          31
2790          27          35
2800          31          32
2810          31          34
2820          34          30
2830          30          40
2840          32          30
2850          31          30
2860          32          30
2870          34          30
2880          32          29
2890          31          34
2900          30          32
2910          30          39
2920          29          28
2930          31          31
2940          30          29
2950          30          38
2960          30          33
2970          28          32
2980          32          29
2990          33          25
3000          27          33
3010          30          37
3020          33          30
3030          31          37
3040          32          34
3050          29          29
3060          32          25
3070          30          32
3080          30          35
3090          26          37
3100          28          30
3110          29          29
3120          29          27
3130          29          33
3140          28          31
3150          30          30
3160          26          34
3170          28          31
3180          27          34
3190          28          34
3200          32          29
3210          31          35
3220          32          30
3230          30          32
3240          25          35
3250          35          31
3260          30          35
3270          34          32
3280          32          28
3290          32          37
3300          30          33
3310          33          34
3320          30          32
3330          28          32
3340          33          32
3350          28          31
3360          28          30
3370          33          34
3380          30          30
3390          31          26
3400          31          31
3410          31          33
3420          31          35
3430          32          32
3440          32          32
3450          28          34
3460          26          37
3470          31          34
3480          31          32
3490          32          30
3500          32          33
3510          32          37
3520          27          36
3530          29          34
3540          33          29
3550          29          34
3560          33          30
3570          32          34
3580          28          32
3590          26          27
3600          28          35
3610          28          36
3620          33          33
3630          28          35
3640          31          37
3650          30          35
3660          30          38
3670          34          30
3680          31          34
3690          30          35
3700          32          32
3710          31          36
3720          32          38
3730          31          32
3740          32          35
3750          30          38
3760          31          33
3770          30          32
3780          32          34
3790          34          36
3800          31          35
3810          33          35
3820          32          37
3830          28          38
3840          31          38
3850          32          31
3860          30          36
3870          31          37
3880          32          33
3890          32          31
3900          32          30
3910          28          35
3920          33          31
3930          32          32
3940          29          36
3950          31          34
3960          32          32
3970          30          34
3980          30          30
3990          31          26
4000          30          33
4010          29          39
4020          28          38
4030          29          33
4040          26          33
4050          32          31
4060          27          39
4070          30          38
4080          30          30
4090          29          36
4100          32          32
4110          32          34
4120          29          35
4130          28          32
4140          30          33
4150          29          33
4160          30          34
4170          30          32
4180          31          34
4190          32          28
4200          28          27
4210          29          37
4220          33          28
4230          30          31
4240          32          28
4250          28          34
4260          28          37
4270          27          34
4280          36          31
4290          30          30
4300          32          29
4310          32          32
4320          31          29
4330          31          32
4340          35          30
4350          29          33
4360          27          40
4370          33          35
4380          32          31
4390          32          35
4400          29          33
4410          29          31
4420          31          39
4430          31          35
4440          32          35
4450          26          37
4460          29          35
4470          34          32
4480          32          34
4490          34          30
4500          29          34
4510          30          37
4520          27          40
4530          33          32
4540          30          31
4550          25          36
4560          26          35
4570          26          32
4580          32          30
4590          28          40
4600          31          33
4610          31          36
4620          34          30
4630          28          36
4640          29          32
4650          29          33
4660          32          31
4670          33          35
4680          32          31
4690          31          32
4700          29          36
4710          30          30
4720          34          31
4730          31          29
4740          31          33
4750          31          33
4760          31          30
4770          26          33
4780          31          27
4790          29          31
4800          27          35
4810          31          30
4820          29          34
4830          32          31
4840          32          33
4850          28          36
4860          31          28
4870          34          30
4880          29          33
4890          33          29
4900          31          30
4910          28          33
4920          31          29
4930          28          27
4940          28          33
4950          29          31
4960          24          34
4970          32          32
4980          31          32
4990          34          30
5000          31          26
5010          30          35
5020          27          37
5030          31          34
5040          34          26
5050          30          35
5060          32          33
5070          29          37
5080          30          37
5090          29          36
5100          31          33
5110          28          34
5120          29          35
5130          29          36
5140          30          35
5150          26          40
5160          28          39
5170          27          35
5180          31          34
5190          27          37
5200          31          35
5210          29          32
5220          31          32
5230          28          36
5240          29          34
5250          31          34
5260          30          34
5270          28          40
5280          31          33
5290          28          36
5300          28          33
5310          34          32
5320          29          39
5330          30          28
5340          30          35
5350          31          34
5360          31          38
5370          33          35
5380          32          31
5390          32          31
5400          27          33
5410          29          35
5420          30          37
5430          28          32
5440          29          35
5450          29          35
5460          33          34
5470          27          33
5480          30          35
5490          28          35
5500          29          28
5510          31          34
5520          31          33
5530          34          32
5540          31          32
5550          31          35
5560          27          35
5570          31          30
5580          33          33
5590          32          37
5600          28          35
5610          32          31
5620          28          34
5630          26          39
5640          30          33
5650          28          40
5660          29          33
5670          28          31
5680          33          33
5690          27          40
5700          31          33
5710          28          38
5720          34          32
5730          30          34
5740          30          31
5750          28          34
5760          30          30
5770          30          32
5780          33          25
5790          30          35
5800          30          31
5810          31          27
5820          31          32
5830          26          32
5840          28          27
5850          30          33
5860          31          37
5870          29          32
5880          31          34
5890          32          34
5900          29          35
5910          27          37
5920          30          31
5930          30          30
5940          28          32
5950          28          30
5960          31          35
5970          24          38
5980          32          31
5990          32          37
6000          29          27
6010          28          34
6020          30          36
6030          29          33
6040          29          35
6050          31          37
6060          29          38
6070          30          29
6080          32          31
6090          34          35
6100          35          36
6110          32          37
6120          31          36
6130          28          38
6140          31          34
6150          31          33
6160          29          39
6170          28          41
6180          29          38
6190          30          35
6200          28          34
6210          30          36
6220          32          29
6230          26          35
6240          28          35
6250          28          28
6260          27          33
6270          28          34
6280          31          38
6290          31          28
6300          31          26
6310          34          34
6320          27          34
6330          28          36
6340          31          31
6350          30          30
6360          32          31
6370          27          32
6380          28          33
6390          31          32
6400          25          38
6410          28          33
6420          29          33
6430          31          29
6440          27          29
6450          30          32
6460          29          38
6470          26          42
6480          26          38
6490          25          37
6500          29          25
6510          28          30
6520          25          37
6530          28          33
6540          28          33
6550          28          30
6560          24          38
6570          28          30
6580          26          30
6590          26          32
6600          30          32
6610          28          30
6620          27          35
6630          34          29
6640          32          28
6650          30          34
6660          29          32
6670          30          30
6680          31          27
6690          29          31
6700          27          33
6710          28          32
6720          29          35
6730          30          35
6740          30          26
6750          28          32
6760          26          29
6770          31          31
6780          32          27
6790          27          32
6800          29          33
6810          29          37
6820          27          30
6830          31          33
6840          30          32
6850          29          31
6860          28          28
6870          32          31
6880          29          29
6890          30          34
6900          34          22
6910          29          31
6920          29          34
6930          28          34
6940          27          34
6950          27          31
6960          32          24
6970          31          30
6980          29          31
6990          27          35
7000          30          32
7010          29          28
7020          30          38
7030          29          33
7040          27          28
7050          29          29
7060          29          31
7070          28          33
7080          23          39
7090          28          32
7100          26          36
7110          24          38
7120          26          29
7130          26          30
7140          29          26
7150          24          35
7160          29          29
7170          26          31
7180          28          31
7190          26          37
7200          29          25
7210          22          32
7220          29          32
7230          29          28
7240          30          27
7250          27          29
7260          26          33
7270          27          31
7280          29          28
7290          31          27
7300          29          29
7310          29          29
7320          27          29
7330          27          31
7340          28          27
7350          27          27
7360          27          28
7370          28          27
7380          25          31
7390          26          34
7400          27          25
7410          28          32
7420          29          31
7430          28          28
7440          33          25
7450          32          25
7460          26          30
7470          28          30
7480          29          30
7490          29          34
7500          26          36
7510          28          44
7520          31          33
7530          27          40
7540          25          38
7550          26          31
7560          30          31
7570          27          35
7580          29          35
7590          32          29
7600          28          29
7610          27          34
7620          30          30
7630          28          33
7640          28          35
7650          30          32
7660          29          32
7670          30          28
7680          28          30
7690          26          35
7700          28          30
7710          28          30
7720          30          34
7730          25          35
7740          25          36
7750          29          28
7760          31          27
7770          32          33
7780          28          34
7790          29          31
7800          28          34
7810          29          32
7820          27          34
7830          29          33
7840          28          28
7850          26          33
7860          24          32
7870          29          32
7880          25          26
7890          26          40
7900          28          39
7910          26          35
7920          27          31
7930          33          26
7940          27          34
7950          28          32
7960          28          35
7970          32          31
7980          32          30
7990          30          34
8000          25          37
8010          30          32
8020          25          40
8030          30          30
8040          27          34
8050          28          34
8060          30          29
8070          28          29
8080          27          32
8090          30          26
8100          27          30
8110          29          42
8120          27          34
8130          26          35
8140          28          26
8150          29          31
8160          27          29
8170          28          31
8180          25          34
8190          30          28
8200          29          29
8210          25          36
8220          27          32
8230          27          32
8240          25          32
8250          27          31
8260          34          27
8270          29          28
8280          26          32
8290          31          30
8300          30          33
8310          29          34
8320          29          33
8330          26          37
8340          31          31
8350          28          38
8360          25          36
8370          29          31
8380          29          30
8390          27          28
8400          28          29
8410          27          23
8420          26          29
8430          23          33
8440          23          33
8450          28          28
8460          29          35
8470          27          31
8480          28          36
8490          27          36
8500          26          31
8510          27          40
8520          25          30
8530          29          30
8540          27          29
8550          26          29
8560          31          22
8570          29          33
8580          29          32
8590          31          31
8600          31          34
8610          30          33
8620          26          33
8630          26          32
8640          28          31
8650          30          36
8660          32          32
8670          25          37
8680          30          36
8690          30          31
8700          31          31
8710          28          30
8720          30          31
8730          33          27
8740          30          30
8750          30          34
8760          27          27
8770          30          32
8780          27          34
8790          27          33
8800          29          29
8810          27          29
8820          29          37
8830          26          37
8840          29          31
8850          30          34
8860          28          28
8870          32          28
8880          28          32
8890          31          27
8900          26          35
8910          27          29
8920          31          32
8930          33          32
8940          24          38
8950          26          25
8960          25          34
8970          26          31
8980          27          30
8990          27          29
9000          29          26
9010          28          25
9020          31          28
9030          29          34
9040          33          27
9050          32          33
9060          23          33
9070          29          30
9080          29          30
9090          25          31
9100          27          31
9110          26          35
9120          31          31
9130          26          34
9140          32          31
9150          30          33
9160          29          31
9170          31          34
9180          31          33
9190          29          34
9200          29          33
9210          30          33
9220          29          32
9230          30          24
9240          32          25
9250          27          29
9260          31          25
9270          29          32
9280          30          33
9290          27          30
9300          30          38
9310          30          32
9320          26          32
9330          30          33
9340          29          32
9350          30          26
9360          31          32
9370          29          30
9380          29          35
9390          31          30
9400          28          32
9410          30          30
9420          27          32
9430          33          33
9440          32          34
9450          28          42
9460          29          38
9470          31          34
9480          27          37
9490          27          38
9500          32          27
9510          33          33
9520          33          32
9530          30          35
9540          28          34
9550          26          38
9560          29          34
9570          23          40
9580          30          32
9590          31          29
9600          26          34
9610          30          31
9620          26          30
9630          32          35
9640          28          29
9650          29          35
9660          29          31
9670          32          32
9680          31          28
9690          29          41
9700          29          30
9710          29          30
9720          31          26
9730          29          34
9740          28          29
9750          29          31
9760          27          29
9770          27          34
9780          25          35
9790          29          35
9800          28          31
9810          25          36
9820          28          33
9830          28          32
9840          30          29
9850          28          23
9860          26          32
9870          29          30
9880          32          30
9890          28          33
9900          27          34
9910          31          30
9920          29          32
9930          27          35
9940          29          33
9950          32          27
9960          25          33
9970          27          30
9980          28          34
9990          31          27
10000          28          32
