Time   C(t)   
ps   
0           1           1  1.99509e-10    0.018925
10    0.813312    0.830893   -0.474319   0.0107637
20    0.784726    0.804999   0.0389026  0.00260241
30    0.761264    0.783746    -1.11717  0.00209512
40    0.742824    0.767042  -0.0267984  0.00178095
50    0.725645    0.751481    0.635861  0.00160013
60    0.710821    0.738053   -0.199244  0.00152911
70    0.695063    0.723779     1.19086  0.00147062
80    0.681409    0.711411     1.85222  0.00141675
90    0.666728    0.698112      1.5103  0.00139385
100    0.653532    0.686159     1.48844  0.00123005
110    0.642127    0.675828    0.204142  0.00107861
120     0.63196    0.666618     1.48668  0.000978068
130    0.622565    0.658109    0.588009  0.000983611
140    0.612287    0.648799     1.20816  0.00093168
150    0.603932     0.64123     1.01476  0.000950053
160    0.593286    0.631587     1.93504  0.000927293
170    0.585386     0.62443     1.63403  0.000864768
180    0.575991     0.61592     1.65577  0.000818217
190    0.569021    0.609607     1.86844  0.000725874
200    0.561473     0.60277     2.35995  0.000747383
210    0.554074    0.596067     1.95276  0.000767818
220    0.546117     0.58886     1.20413  0.000744519
230    0.539183    0.582579   -0.421506  0.000702405
240    0.532069    0.576134   -0.529148  0.000692043
250    0.525343    0.570041   -0.230042  0.00065321
260    0.519005      0.5643    0.432471  0.000632057
270    0.512701    0.558591    0.838197  0.000633365
280    0.506338    0.552826    0.987572  0.000652473
290    0.499652     0.54677       1.201  0.000650217
300    0.493333    0.541046    0.366562  0.00061354
310    0.487381    0.535655   -0.232736  0.000548141
320     0.48237    0.531116    0.494162  0.000561224
330    0.476157    0.525487    0.344348  0.000588588
340    0.470599    0.520453     1.34937  0.000528875
350    0.465579    0.515906    0.429234  0.000589806
360    0.458802    0.509767    0.514997  0.000581406
370    0.453951    0.505373   0.0222556  0.000508356
380    0.448635    0.500558   -0.341549  0.000511798
390    0.443715    0.496101    0.662848  0.00045049
400    0.439626    0.492396    0.918989  0.000503139
410    0.433652    0.486986    0.597961  0.000461952
420    0.430387    0.484027     1.15308  0.000442593
430      0.4248    0.478967      1.1316  0.000488004
440    0.420626    0.475186     1.13131  0.000411804
450    0.416564    0.471507    0.980533  0.000473145
460    0.411164    0.466615     1.30175  0.000477725
470     0.40701    0.462852     1.23732  0.000438811
480    0.402387    0.458665     1.42935  0.000446962
490    0.398071    0.454755    0.851784  0.000438198
500    0.393623    0.450726     1.62113  0.000440359
510    0.389263    0.446777      1.0646  0.000415763
520    0.385308    0.443194    0.721844  0.00044464
530    0.380371    0.438722     1.14987  0.000422363
540    0.376861    0.435542    0.550568  0.000403826
550    0.372294    0.431406      1.2997  0.000399731
560    0.368866    0.428301    0.507603  0.000381055
570    0.364673    0.424502     1.17045  0.000386755
580    0.361131    0.421294    0.742282  0.000310434
590    0.358464    0.418878    0.976773  0.000304979
600    0.355032    0.415769    0.634472  0.000408734
610     0.35029    0.411473   -0.285373  0.000404616
620    0.346939    0.408438   0.0139006  0.000374807
630    0.342793    0.404683    0.184988  0.000371878
640    0.339502    0.401701    0.505368  0.000311044
650    0.336573    0.399048    0.654827  0.000340135
660    0.332699    0.395539    0.697646  0.000355609
670     0.32946    0.392606    0.846457  0.000305694
680    0.326585    0.390001    0.589544  0.000360905
690    0.322242    0.386067    0.333069  0.000323097
700    0.320123    0.384148    0.632133  0.000285484
710    0.316533    0.380895     2.10789  0.000305928
720    0.314005    0.378605     1.80783  0.000302884
730    0.310475    0.375408     2.04311  0.000354558
740    0.306913    0.372182     1.38024  0.000306676
750    0.304341    0.369852      1.4011  0.000268714
760    0.301539    0.367314     1.31488  0.000374232
770    0.296857    0.363072     1.20819  0.000316164
780    0.295216    0.361586     1.59298  0.000246881
790    0.291919      0.3586     1.05813  0.000253592
800    0.290144    0.356992     1.31423  0.000294401
810    0.286031    0.353266     1.52851  0.000296195
820     0.28422    0.351626     1.16418  0.000307024
830    0.279891    0.347704    0.993264  0.000330183
840    0.277616    0.345644    0.693552  0.000246574
850    0.274959    0.343237    0.350938  0.000279929
860    0.272018    0.340572    0.970883  0.000328523
870    0.268389    0.337285    0.671589  0.000292486
880    0.266168    0.335274    0.329225  0.000210975
890    0.264169    0.333463    0.221478  0.000203861
900    0.262091     0.33158    0.371272  0.000206818
910    0.260033    0.329716    0.435093  0.000212374
920    0.257843    0.327733    0.113919  0.00023191
930    0.255395    0.325515   -0.292683  0.000261667
940     0.25261    0.322992   -0.335731  0.000260936
950    0.250176    0.320787  -0.0791938  0.000313824
960    0.246334    0.317307   -0.763316  0.00031573
970    0.243861    0.315068   -0.207317  0.000215509
980    0.242023    0.313403   -0.806678  0.00026466
990    0.238568    0.310273    0.327555  0.00022035
1000    0.237616    0.309411     -0.4435  0.000192748
1010    0.234713    0.306781   -0.700226  0.000203338
1020     0.23355    0.305727   -0.379637  0.000180738
1030    0.231098    0.303507    -0.50847  0.00025828
1040    0.228384    0.301048   -0.251264  0.000172549
1050    0.227647    0.300381  -0.0809068  0.000113705
1060     0.22611    0.298988   -0.765634  0.000178484
1070    0.224078    0.297147   -0.273519  0.000207292
1080    0.221964    0.295232   -0.765885  0.00017668
1090    0.220544    0.293946   -0.295712  0.000195269
1100    0.218059    0.291695  0.00374935  0.000221565
1110    0.216113    0.289932   -0.274772  0.000175362
1120    0.214552    0.288518   -0.744924  0.000129014
1130    0.213533    0.287595    -1.06637  0.00018919
1140    0.210768     0.28509   -0.745363  0.000192107
1150    0.209691    0.284115  -0.0615756  0.000150897
1160     0.20775    0.282357   -0.488867  0.00014727
1170    0.206745    0.281447   -0.960188  0.000155501
1180     0.20464    0.279539   -0.254042  0.000154509
1190    0.203655    0.278647   -0.639371  0.000171925
1200    0.201201    0.276425   -0.232559  0.000138123
1210    0.200892    0.276145   -0.147381  0.000114947
1220    0.198902    0.274342   -0.233478  0.000190049
1230    0.197091    0.272702   -0.554192  0.000183923
1240    0.195224     0.27101   -0.404232  0.000109222
1250    0.194907    0.270723   -0.832442  9.89988e-05
1260    0.193244    0.269217    -1.17506  0.000126889
1270    0.192369    0.268424   -0.533503  0.000182758
1280    0.189589    0.265906   -0.854196  0.00021349
1290    0.188099    0.264557    -1.17493  0.000131895
1300    0.186951    0.263516    -1.43203  0.000153469
1310     0.18503    0.261776    -1.19694  0.000125892
1320    0.184433    0.261236   -0.683756  0.000139549
1330    0.182239    0.259248   -0.769101  0.000134437
1340    0.181744      0.2588   -0.341956  8.02137e-05
1350    0.180635    0.257795   -0.577283  0.000113714
1360     0.17947     0.25674   -0.962361  0.000124657
1370    0.178142    0.255537   -0.385109  0.000110231
1380    0.177265    0.254743   -0.983781  0.000162733
1390    0.174887    0.252589   -0.962298  0.000181808
1400    0.173629    0.251449    -1.62571  9.63941e-05
1410    0.172959    0.250842    -1.64742  8.99285e-05
1420    0.171831     0.24982    -1.94701  0.000166796
1430    0.169623     0.24782    -1.21967  0.000167114
1440    0.168488    0.246792    -1.47646  0.000102849
1450    0.167566    0.245957    -1.19865  0.000104455
1460    0.166399      0.2449   -0.899417  0.00015334
1470    0.164499    0.243179    -1.43425  0.00015772
1480    0.163245    0.242043    -1.22042  0.000140516
1490    0.161689    0.240633    -1.00664  0.00010013
1500    0.161242    0.240229   -0.985995  0.000130313
1510    0.159083    0.238273   -0.921672  0.000172664
1520    0.157789    0.237101    -1.09284  0.000162224
1530    0.155838    0.235334    -1.17823  0.000127158
1540    0.155246    0.234797    -1.41402  0.000108421
1550     0.15367     0.23337    -2.03436  0.000126383
1560    0.152718    0.232507    -1.26452  0.000147243
1570    0.150725    0.230702   -0.857789  0.000148893
1580     0.14974     0.22981    -1.17867  0.000108176
1590    0.148562    0.228742    -1.39264  0.000124889
1600    0.147242    0.227547    -0.60123  0.000108694
1610    0.146388    0.226773   -0.494361  0.000102102
1620      0.1452    0.225698    -0.72975  9.9577e-05
1630    0.144396    0.224969    0.104228  8.32863e-05
1640    0.143535    0.224189  -0.0671314  0.000101425
1650    0.142368    0.223132    0.253812  0.000108564
1660    0.141363    0.222222   -0.409725  0.000135139
1670    0.139665    0.220683    0.146691   0.0001465
1680    0.138433    0.219568   -0.473838  8.86127e-05
1690    0.137893    0.219078   -0.495342  0.000133323
1700    0.135767    0.217152   -0.580646  0.000122417
1710    0.135444     0.21686    -1.35089  5.59807e-05
1720    0.134647    0.216138   -0.324755  0.000117434
1730    0.133096    0.214733   -0.517263  0.000156761
1740    0.131512    0.213298   -0.624029  0.000154347
1750    0.130009    0.211936   0.0605943  0.000119734
1760    0.129117    0.211129    0.252914  6.40288e-05
1770    0.128728    0.210776   -0.474966  7.40334e-05
1780    0.127637    0.209788   -0.196779  9.80429e-05
1790    0.126767       0.209  -0.0258376  7.29784e-05
1800    0.126177    0.208466   -0.175547  9.14767e-05
1810    0.124938    0.207343   -0.239807  0.000124097
1820    0.123695    0.206218    0.337549  0.000214712
1830    0.120643    0.203453   -0.111266  0.000236329
1840    0.118969    0.201936    0.316401  0.000133708
1850    0.117969    0.201031   0.0380046  0.000136909
1860    0.116231    0.199456   -0.432691  0.000161316
1870    0.114743    0.198108     0.50847  0.000168824
1880    0.112854    0.196397    0.487384  8.53419e-05
1890    0.113036    0.196562    0.508135  6.00554e-05
1900    0.111653    0.195309     0.18715  0.000127099
1910    0.110494     0.19426    0.657762  0.000141694
1920    0.108819    0.192742     1.06403  0.000142006
1930    0.107654    0.191687    0.700163  0.00011092
1940    0.106601    0.190733    0.550307  7.2537e-05
1950    0.106203    0.190373    0.956659  0.000110044
1960      0.1044    0.188739    0.507697  0.000120274
1970    0.103798    0.188194    0.678597  9.90853e-05
1980    0.102418    0.186944    0.314855  0.000129519
1990    0.101207    0.185847   0.0792984  0.000124087
2000   0.0999363    0.184696   0.0153104  0.000102748
2010   0.0991525    0.183986     0.10051  0.000114599
2020   0.0976443     0.18262    0.228862  0.000145208
2030   0.0962483    0.181355  -0.0280306  0.000120957
2040   0.0952252    0.180429    0.827701  0.000121288
2050   0.0938226    0.179158   -0.134942  0.000112872
2060   0.0929678    0.178384    0.570745  8.99214e-05
2070   0.0920241    0.177529   0.0359784  0.000104677
2080   0.0908742    0.176487    0.527884  0.00014138
2090   0.0891966    0.174968    0.185751  0.000144636
2100   0.0879815    0.173867    0.549179  0.00010119
2110   0.0871728    0.173134      0.5492  0.000123421
2120   0.0855131    0.171631    0.228235  0.000126612
2130   0.0846405    0.170841    0.142702  9.32384e-05
2140   0.0836483    0.169942   0.0997579  7.43736e-05
2150    0.083153    0.169493   0.0565001  0.000131945
2160   0.0810094    0.167551   -0.242647  0.000129243
2170   0.0805682    0.167152    0.356003  8.69237e-05
2180   0.0792709    0.165977    0.398843  0.000116619
2190   0.0782358    0.165039    0.848076  9.18023e-05
2200   0.0774349    0.164314  -0.00757148  6.24511e-05
2210   0.0769868    0.163908  -0.0292418  0.000118953
2220   0.0750558    0.162159   -0.349893  0.000107289
2230    0.074841    0.161964   -0.307492  7.7958e-05
2240   0.0734967    0.160746    -0.17914  0.000150987
2250   0.0718213    0.159229   -0.478643  9.77401e-05
2260   0.0715419    0.158975   -0.285926  2.64816e-05
2270   0.0712916    0.158749   -0.350499  0.000104199
2280   0.0694579    0.157088   -0.606911  0.000149233
2290    0.068307    0.156045  -0.0296389  6.43257e-05
2300   0.0681714    0.155922   -0.436179  7.65525e-05
2310   0.0667759    0.154658   -0.650023  9.76812e-05
2320   0.0662178    0.154153   -0.543195  0.000107012
2330   0.0646357     0.15272    -0.65019  8.61533e-05
2340   0.0644947    0.152592      -0.629  4.72914e-05
2350   0.0636899    0.151863   -0.586202  6.84965e-05
2360   0.0631248    0.151351   -0.800234  7.01958e-05
2370    0.062286    0.150591   -0.415427  5.52468e-05
2380   0.0620198     0.15035    -0.80038  5.5421e-05
2390   0.0611775    0.149587    -0.99295  6.76626e-05
2400   0.0606666    0.149124     -1.5706  6.48331e-05
2410   0.0598809    0.148413   -0.757812  8.77911e-05
2420   0.0589107    0.147534   -0.886331  7.7351e-05
2430   0.0583339    0.147011    -1.46352  6.69148e-05
2440   0.0575725    0.146322    -1.03612  6.86003e-05
2450   0.0569618    0.145768   -0.993389  9.63157e-05
2460   0.0556461    0.144577    -1.05763  8.73437e-05
2470    0.055215    0.144186    -1.03623  5.69617e-05
2480   0.0545069    0.143545    -1.12182  6.1705e-05
2490   0.0539809    0.143068    -1.05777  4.65147e-05
2500   0.0535766    0.142702   -0.950799  4.97095e-05
2510   0.0529867    0.142168    -1.10043  6.0631e-05
2520    0.052364    0.141604     -1.3787  7.16016e-05
2530   0.0515547     0.14087    -1.05788  6.40476e-05
2540    0.051083    0.140443    -1.29325  4.56685e-05
2550   0.0506413    0.140043    -1.29321  9.53764e-05
2560   0.0491755    0.138715   -0.800902  0.000106434
2570   0.0485126    0.138115   -0.993514  8.65852e-05
2580   0.0474438    0.137147    -1.03642  3.23305e-05
2590    0.047866    0.137529   -0.523404  5.58726e-05
2600   0.0463264    0.136135   -0.587601  0.000104262
2610   0.0457807     0.13564   -0.373799  2.80716e-05
2620   0.0457649    0.135626   -0.117219  4.22535e-05
2630   0.0449357    0.134875   -0.181437  9.40103e-05
2640   0.0438847    0.133923  -0.0533564  0.000117784
2650     0.04258    0.132741   -0.758981  7.72456e-05
2660   0.0423398    0.132523   -0.844766  7.43875e-05
2670   0.0410922    0.131393   -0.502151  5.71886e-05
2680    0.041196    0.131487   -0.780255  3.81079e-06
2690    0.041016    0.131324   -0.887438  3.0656e-05
2700   0.0405829    0.130932    -1.05855  3.07208e-05
2710   0.0404016    0.130768    -0.84464  1.18203e-05
2720   0.0403465    0.130718   -0.780589  2.77204e-05
2730   0.0398472    0.130266   -0.331502  1.82344e-05
2740   0.0399818    0.130387   -0.887939  2.31054e-05
2750   0.0393851    0.129847   -0.673699  3.26728e-05
2760   0.0393284    0.129796   -0.502736  -1.34531e-05
2770   0.0396542    0.130091   -0.973452  1.36882e-05
2780   0.0390546    0.129548   -0.695202  8.86582e-06
2790   0.0394768     0.12993   -0.610107  5.70012e-05
2800   0.0379146    0.128515   -0.909213  7.62595e-05
2810   0.0379517    0.128549   -0.438706  2.6805e-05
2820   0.0373785    0.128029   -0.652654  2.6842e-05
2830   0.0374148    0.128062   -0.716747  2.79974e-06
2840   0.0373225    0.127979   -0.567163  2.21552e-05
2850   0.0369717    0.127661   -0.759566  4.31927e-05
2860   0.0364586    0.127196   -0.460105  3.19745e-05
2870   0.0363322    0.127082   -0.952032  3.69515e-05
2880   0.0357196    0.126527   -0.759378  -9.99849e-06
2890   0.0365322    0.127263   -0.695557  -2.61676e-05
2900   0.0362429    0.127001   -0.952429  9.72657e-05
2910   0.0345869    0.125501    -1.12304  4.85951e-05
2920    0.035271     0.12612    -1.18773  3.22908e-06
2930   0.0345223    0.125442     -1.2517  6.02953e-05
2940   0.0340651    0.125028    -1.12352  3.75997e-05
2950   0.0337703    0.124761    -0.73848  2.95226e-05
2960   0.0334747    0.124493   -0.866958  2.14059e-05
2970   0.0333422    0.124373    -1.03813  5.1046e-05
2980   0.0324538    0.123568   -0.952429  4.12663e-05
2990   0.0325169    0.123626   -0.631861  4.96849e-05
3000   0.0314601    0.122668   -0.589001  5.47051e-05
3010   0.0314228    0.122634   -0.482444  4.33687e-05
3020   0.0305927    0.121883  -0.0970944  6.65875e-05
3030    0.030091    0.121428   -0.396806  1.87693e-05
3040   0.0302173    0.121543  -0.0973659  6.18584e-07
3050   0.0300786    0.121417    0.116645  3.88112e-05
3060   0.0294411    0.120839   -0.075758  2.55814e-05
3070    0.029567    0.120953    0.202032  1.40416e-05
3080   0.0291603    0.120585   -0.311189  5.74243e-05
3090   0.0284185    0.119913   0.0310697  3.91912e-05
3100   0.0283764    0.119875   -0.140101  3.09825e-05
3110   0.0277989    0.119352    0.159276  5.45035e-05
3120   0.0272864    0.118888    0.223411  6.47376e-05
3130   0.0265041    0.118179    0.351867  2.96036e-05
3140   0.0266943    0.118351    0.672414  1.62994e-05
3150   0.0261781    0.117884     1.07885  5.67511e-05
3160   0.0255593    0.117323    0.800829  2.31476e-05
3170   0.0257152    0.117464    0.736402  1.29621e-06
3180   0.0255333      0.1173    0.757822  6.0526e-05
3190   0.0245047    0.116368    0.822166  7.42069e-05
3200   0.0240492    0.115955    0.736611  5.40981e-05
3210   0.0234227    0.115388     0.67233  5.08404e-05
3220   0.0230324    0.115034    0.757697  3.90858e-05
3230    0.022641     0.11468    0.650723  6.13716e-05
3240    0.021805    0.113922    0.714961  3.07753e-05
3250   0.0220255    0.114122    0.843105  -4.9754e-06
3260   0.0219045    0.114012    0.714962  6.9798e-06
3270   0.0218859    0.113996    0.565127  -8.43816e-06
3280   0.0220732    0.114165    0.671788  7.23098e-05
3290   0.0204397    0.112686    0.479677  7.23945e-05
3300   0.0206253    0.112854     1.09968  2.62102e-05
3310   0.0199155    0.112211    0.864316  4.52083e-05
3320   0.0197212    0.112035     1.07806  8.34133e-05
3330   0.0182472      0.1107     1.12096  0.000100879
3340   0.0177036    0.110207    0.949829  7.52461e-05
3350   0.0167423    0.109336    0.800182  5.98136e-05
3360   0.0165073    0.109124    0.543289  3.39645e-05
3370    0.016063    0.108721    0.179944  6.19148e-05
3380    0.015269    0.108002    0.543226  4.11439e-05
3390   0.0152401    0.107976    0.735692  1.16291e-05
3400   0.0150365    0.107791    0.457693  2.39031e-05
3410   0.0147621    0.107543    0.692915  2.92276e-05
3420   0.0144519    0.107262    0.778427  1.52729e-05
3430   0.0144566    0.107266    0.756778  5.2249e-05
3440   0.0134069    0.106315    0.628613  9.80886e-05
3450   0.0124948    0.105489     1.14196  5.78611e-05
3460   0.0122497    0.105267    0.606859  8.28092e-05
3470   0.0108386    0.103989    0.714147  6.35203e-05
3480   0.0109793    0.104116    0.649616  1.77861e-05
3490   0.0104829    0.103667     0.73517  7.45495e-05
3500   0.0094883    0.102766    0.457066  7.11911e-05
3510   0.0090591    0.102377    0.799158  5.01039e-05
3520  0.00848622    0.101858    0.756506  6.09385e-05
3530  0.00784033    0.101273    0.628217  3.43544e-05
3540  0.00779914    0.101235     1.05622  1.1266e-05
3550  0.00761501    0.101069    0.906112  4.35102e-05
3560  0.00692893    0.100447    0.991875  4.18175e-05
3570  0.00677866    0.100311     1.05584  1.50553e-05
3580  0.00662783    0.100174    0.820432  3.48878e-05
3590   0.0060809    0.099679    0.713499  6.13597e-06
3600  0.00650511    0.100063    0.969933  -2.78915e-06
3610  0.00613669   0.0997296     1.20538  1.52186e-05
3620  0.00620073   0.0997876    0.905777  1.53004e-05
3630  0.00583068   0.0994524     1.03398  4.97478e-05
3640  0.00520578   0.0988863     1.05545  5.89632e-05
3650  0.00465141   0.0983842     1.07684  9.37128e-05
3660  0.00333152   0.0971886    0.692038  9.21274e-05
3670  0.00280886   0.0967151    0.927323  5.05197e-05
3680  0.00232113   0.0962733     1.11954  4.70273e-05
3690  0.00186832   0.0958632     1.39739  5.08434e-05
3700  0.00130426   0.0953522     1.69664  6.74927e-05
3710  0.000518464   0.0946404     1.56846  8.05398e-05
