Time   C(t)   
ps   
0           1           1  3.62041e-10   0.0287293
10    0.716198    0.839163   -0.453787   0.0159731
20    0.680539    0.818954    0.416802  0.00321685
30    0.651861    0.802702    0.337415  0.00232578
40    0.634023    0.792593  -0.0195373  0.00152484
50    0.621364    0.785419    -1.01147  0.00139425
60    0.606138     0.77679   -0.259517  0.00151723
70     0.59102    0.768222    0.729205  0.00155816
80    0.574975    0.759129    0.887283  0.00124439
90    0.566132    0.754117    0.608016  0.000974879
100    0.555478    0.748079    0.924985  0.00113206
110    0.543491    0.741286    0.687094  0.00120682
120    0.531341    0.734401    0.132699  0.000946435
130    0.524562    0.730559    0.804956  0.000941721
140    0.512507    0.723727   -0.819173  0.000974557
150    0.505071    0.719513   -0.661521  0.000595173
160    0.500603    0.716981    -1.29584  0.000662529
170     0.49182    0.712003   -0.188138  0.00079577
180    0.484688    0.707961    0.445489  0.000675662
190    0.478307    0.704345   -0.346719  0.000697954
200    0.470729     0.70005      -2.208   0.0008911
210    0.460485    0.694245   -0.661482  0.000784633
220    0.455036    0.691157    0.288185  0.000636259
230     0.44776    0.687033    -1.69317  0.000487073
240    0.445295    0.685636    -1.65454  0.000397269
250    0.439814    0.682531    -1.21982  0.000559123
260    0.434112    0.679299   -0.782981  0.000444515
270    0.430924    0.677492    -1.02254  0.000473663
280    0.424639     0.67393    -1.02172  0.000537752
290    0.420169    0.671397    0.206399  0.000524873
300    0.414142    0.667981    -0.15005  0.000469524
310    0.410779    0.666075    0.404422  0.00038953
320    0.406351    0.663566   -0.666048  0.000520855
330    0.400362    0.660172   -0.625638  0.000599605
340    0.394359     0.65677   -0.150128  0.00028253
350    0.394711    0.656969    -2.32997  0.000223248
360    0.389894    0.654239    -1.02315  0.000386479
370    0.386981    0.652589   -0.032691  0.000245415
380    0.384986    0.651458  -0.0321495  0.000292148
390    0.381138    0.649278    -1.14264  0.000466943
400    0.375647    0.646165   -0.270272  0.000332588
410    0.374487    0.645508    0.283233  0.000137505
420    0.372897    0.644607   -0.073758  0.000226946
430    0.369948    0.642936   -0.390804  0.000323753
440    0.366422    0.640937   -0.390726  0.000310086
450    0.363746    0.639421    0.757506  0.000275031
460    0.360921     0.63782    0.399973  0.000408123
470    0.355583    0.634795    0.281801  0.000380138
480    0.353318    0.633511    0.559018  0.000287783
490    0.349828    0.631533     -0.1144  0.00034941
500     0.34633    0.629551    0.797064  0.000285402
510     0.34412    0.628298   -0.748491  0.000347303
520    0.339384    0.625614   -0.154267  0.000304648
530    0.338027    0.624845     1.62763  0.000182776
540    0.335728    0.623543   -0.195296  0.000262588
550    0.332775    0.621869     0.04275  0.000313704
560    0.329454    0.619987   0.0425567  0.000397602
570    0.324823    0.617362    0.439067  0.000340429
580    0.322646    0.616129     1.86467  0.000228833
590    0.320246    0.614769     1.70671  0.000105833
600    0.320529    0.614929   -0.314937  0.000135307
610     0.31754    0.613235    0.358171  0.00036466
620    0.313236    0.610796    0.992146  0.000398138
630    0.309577    0.608722   0.0416667  0.00038811
640    0.305474    0.606397    0.397729  0.000279385
650     0.30399    0.605556   -0.315749  0.000327629
660    0.298921    0.602683    0.357552  0.000434223
670    0.295305    0.600634   -0.117224  0.000303413
680    0.292853    0.599244    0.476575  0.000296798
690    0.289369     0.59727     1.14976  0.00030835
700    0.286686    0.595749   0.0797163  0.000342143
710    0.282526    0.593392     1.62508  0.000434776
720     0.27799    0.590821     1.22814  0.000391495
730    0.274697    0.588955     1.50609  0.000241281
740    0.273165    0.588087     1.78254  0.000245583
750    0.269785    0.586171     1.98106  0.000419635
760    0.264772     0.58333     1.38703  0.000405674
770    0.261671    0.581573     1.38676  0.000232652
780    0.260119    0.580693     1.54445  0.000325872
790    0.255154    0.577879   -0.634227  0.000259627
800    0.254927    0.577751    0.196921  0.000182472
810    0.251505    0.575811    0.632912  0.000283083
820    0.249265    0.574542    0.355463  0.00030236
830    0.245457    0.572384    0.315595  0.000284323
840    0.243578    0.571319    0.196147  0.000173122
850    0.241995    0.570422    -0.12086  0.000270604
860    0.238166    0.568252    0.671735  0.000319699
870    0.235601    0.566798    0.196302  0.000167001
880    0.234826    0.566359     0.11734  0.000160001
890    0.232401    0.564985   -0.120783  0.000152744
900    0.231771    0.564628    0.631442  0.000232015
910    0.227761    0.562355     1.02776  0.000296266
920    0.225846     0.56127     1.02784  7.87653e-05
930    0.226185    0.561462    0.789481  5.6468e-05
940    0.224717     0.56063     1.70013  0.000320467
950    0.219776     0.55783     1.50319  0.000294551
960    0.218826    0.557291     1.46232  0.000197202
970    0.215832    0.555595    0.908426  0.000265602
980    0.213514    0.554281    0.592038  0.000152561
990    0.212781    0.553866     0.74942  0.000221298
1000    0.209088    0.551773     1.38339  0.00038488
1010    0.205083    0.549503    0.749536  0.00027928
1020    0.203502    0.548607     0.98673  0.000181079
1030    0.201462    0.547451    0.313545  0.000166244
1040    0.200177    0.546723   -0.756267  0.000124726
1050    0.198967    0.546037   -0.954561  0.00012115
1060    0.197754     0.54535   0.0747254  0.000171135
1070    0.195544    0.544097    0.668949  0.000267128
1080    0.192412    0.542322    0.431445  3.01585e-05
1090    0.194941    0.543755   -0.559714  1.90362e-05
1100    0.192031    0.542106   -0.678505  0.000252966
1110    0.189882    0.540888  -0.00566773  0.000203639
1120    0.187958    0.539798   -0.401172  0.000154091
1130      0.1868    0.539142    -1.31202  0.00015061
1140    0.184946    0.538091    -1.23294  0.000185612
1150    0.183088    0.537038    -1.31244  0.000139709
1160    0.182152    0.536507   -0.163823  0.000267627
1170    0.177735    0.534005  -0.00497123  0.000302876
1180    0.176094    0.533075   -0.203575  3.64222e-05
1190    0.177007    0.533592   -0.678698  0.000176262
1200    0.172569    0.531077    0.232378  0.000222938
1210    0.172548    0.531065    -0.28362  4.1002e-05
1220    0.171749    0.530612   -0.243791  0.000188946
1230    0.168769    0.528923   -0.441465  0.000278865
1240    0.166172    0.527451    0.232262  0.000170304
1250    0.165363    0.526993    0.707076  3.80047e-05
1260    0.165412     0.52702    0.904751  0.000163268
1270    0.162098    0.525142     1.73729  0.000233908
1280    0.160733    0.524369     1.30138  0.000132661
1290    0.159444    0.523639     3.00466  -2.00465e-05
1300    0.161134    0.524596     1.81563  -2.38374e-05
1310    0.159921    0.523909   -0.204968  0.00030234
1320    0.155088     0.52117   0.0726364  0.00044453
1330    0.151031     0.51887    0.588208  0.000185449
1340    0.151379    0.519068      1.4197  -1.50822e-05
1350    0.151332    0.519041     1.89417  5.20192e-05
1360    0.150338    0.518478     1.49789  0.000182588
1370     0.14768    0.516972     1.14109  0.000218552
1380    0.145967    0.516001     1.37914  0.000108124
1390    0.145518    0.515746     2.84473  9.65655e-05
1400    0.144036    0.514906     1.77511  0.000176183
1410    0.141994    0.513749     1.33935  0.000299884
1420    0.138038    0.511507    0.983171  0.000149121
1430    0.139012    0.512059     1.85368  0.000181647
1440    0.134405    0.509448     1.22064  0.000177772
1450    0.135456    0.510044     1.22017  -0.000185186
1460    0.138109    0.511547    0.902623  -0.000113515
1470    0.137727    0.511331      1.6552  0.000118405
1480    0.135741    0.510205     1.06113  0.00017074
1490    0.134312    0.509396    0.784451  0.000143043
1500     0.13288    0.508584     1.06186  2.6799e-05
1510    0.133776    0.509092     1.69448  2.2991e-05
1520     0.13242    0.508323     1.02114  0.000103486
1530    0.131706    0.507919    0.941407  9.56982e-05
1540    0.130506    0.507239    0.188525  0.000103975
1550    0.129627     0.50674     1.21897  5.5737e-05
1560    0.129392    0.506607    0.743423  2.75612e-05
1570    0.129076    0.506428    0.663649  7.62254e-05
1580    0.127867    0.505743    0.664152  8.85569e-05
1590    0.127304    0.505424     1.02037  0.000153828
1600     0.12479       0.504      1.5359  0.000198811
1610    0.123328    0.503171     1.41715  7.93003e-06
1620    0.124632     0.50391    0.822772  2.03565e-05
1630    0.122921     0.50294    0.664191  0.000195766
1640    0.120717    0.501691       1.417  0.000118532
1650     0.12055    0.501597     1.41684  -4.88535e-05
1660    0.121694    0.502244     1.37666  0.000143695
1670    0.117677    0.499968     2.05101  0.000217587
1680    0.117342    0.499778     1.65458  -4.04395e-05
1690    0.118485    0.500426     1.65403  0.000140492
1700    0.114532    0.498186      1.6545  0.000140542
1710    0.115675    0.498833     2.44682  1.33783e-05
1720    0.114264    0.498034     3.04051  0.000194852
1730    0.111777    0.496625      2.6841  0.00022832
1740    0.109698    0.495446     1.41676  0.000170984
1750    0.108358    0.494687    0.862175  0.00013003
1760    0.107097    0.493973     1.41665  4.32424e-05
1770    0.107493    0.494197     1.53532  1.02125e-05
1780    0.106893    0.493857     1.85148  0.000180658
1790     0.10388    0.492149     1.17891  0.000230889
1800    0.102275     0.49124     2.44582  7.31487e-05
1810    0.102417     0.49132     2.48503  0.000161096
1820   0.0990535    0.489414     1.29716  0.000257377
1830   0.0972692    0.488403    0.703207  0.000216268
1840   0.0947281    0.486963     2.16845  0.000279546
1850   0.0916783    0.485234     1.17814  0.000171198
1860   0.0913042    0.485022      2.2077  -3.8144e-05
1870   0.0924412    0.485667     1.92994  7.11556e-05
1880   0.0898811    0.484216     2.28681  0.000197368
1890   0.0884939    0.483429     2.16744  0.000151546
1900   0.0868501    0.482498     2.24698  5.48877e-05
1910   0.0873961    0.482807     1.05757  0.000110091
1920   0.0846483     0.48125    0.701234  0.000105911
1930   0.0852779    0.481607    0.582327  -0.000122307
1940   0.0870945    0.482636     1.73095  8.92654e-06
1950   0.0850994    0.481506     1.45415  9.36076e-05
1960   0.0852223    0.481575     2.28542  -3.35503e-05
1970   0.0857704    0.481886     2.44431  -1.23236e-05
1980   0.0854688    0.481715     1.09743  3.44709e-05
1990   0.0850809    0.481495     1.96818  3.45524e-05
2000   0.0847777    0.481323     1.25528  0.000137163
2010   0.0823377    0.479941    0.740173  8.60564e-05
2020   0.0830566    0.480348    0.265011  -1.63335e-05
2030   0.0826644    0.480126     1.17644  5.64549e-05
2040   0.0819275    0.479708     1.88941  3.08294e-05
2050   0.0820478    0.479776     1.88906  3.52621e-05
2060   0.0812223    0.479308     2.08747  3.95902e-05
2070    0.081256    0.479328     1.73056  6.55975e-05
2080   0.0799103    0.478565     2.20615  0.000121774
2090   0.0788205    0.477947     2.00793  0.00014371
2100   0.0770361    0.476936     1.05687  9.21249e-05
2110    0.076978    0.476903    0.937848   0.0001531
2120   0.0739741    0.475201     1.37396  0.000105587
2130   0.0748663    0.475706     1.57171  7.13557e-05
2140    0.072547    0.474392     1.88899  1.48166e-05
2150   0.0745699    0.475538     1.17555  -5.01841e-05
2160   0.0735507    0.474961     1.13583  0.000128229
2170   0.0720053    0.474085     1.01685  7.17871e-05
2180   0.0721149    0.474147     1.33386  -9.83566e-05
2190   0.0739725      0.4752     1.49182  -8.09949e-05
2200   0.0737348    0.475065     2.40247  4.57115e-05
2210   0.0730582    0.474682     1.72932  -5.51116e-05
2220   0.0748371     0.47569     1.17427  6.79161e-05
2230   0.0716999    0.473912     2.20468  0.000212933
2240   0.0705784    0.473276     1.80886  0.000160757
2250   0.0684848     0.47209    0.976748  -2.03773e-06
2260   0.0706192    0.473299     2.16462  -9.01029e-05
2270   0.0702868    0.473111      0.9764  0.000130553
2280   0.0680081     0.47182     1.65067  6.88128e-05
2290   0.0689106    0.472331     1.41235  -0.000152456
2300   0.0710572    0.473548     1.88717  -1.5166e-05
2310   0.0692139    0.472503     1.72882  7.34329e-05
2320   0.0695885    0.472715     1.45141  5.1501e-05
2330   0.0681839    0.471919     2.04509  0.000140629
2340    0.066776    0.471121     1.57035  6.51661e-05
2350   0.0668806    0.471181     1.84699  0.000114596
2360   0.0644841    0.469823     2.55993  0.000239958
2370   0.0620814    0.468461     2.71909  0.000177884
2380   0.0609264    0.467806     2.12425  0.000232262
2390   0.0574362    0.465828      1.4506  0.000106955
2400   0.0587873    0.466594     1.76702  4.12278e-06
2410   0.0573537    0.465782     2.63931  0.000143558
2420   0.0559161    0.464967     1.21247  4.47361e-05
2430    0.056459    0.465275     2.59894  0.000112697
2440   0.0536622     0.46369      2.6387  0.000212247
2450    0.052214    0.462869     2.44071  -1.34438e-05
2460   0.0539311    0.463842     2.79716  2.2986e-05
2470   0.0517543    0.462608     2.87674  7.27177e-05
2480   0.0524767    0.463018     3.39111  0.000118555
2490   0.0493832    0.461265     2.51963  0.000155027
2500   0.0493762    0.461261      1.9645  0.000119189
2510   0.0469994    0.459914        2.48  3.72132e-05
2520   0.0486319    0.460839     2.51909  1.47296e-05
2530   0.0467049    0.459747     2.87535  0.000275334
2540   0.0431252    0.457718     2.08333  0.000294299
2550   0.0408189    0.456411      2.4003  9.78831e-05
2560   0.0411676    0.456609     2.47946  -3.95009e-05
2570   0.0416089    0.456859     1.60755  6.16269e-05
2580    0.039935     0.45591     2.04358  6.1656e-05
2590   0.0403758     0.45616     1.80534  2.96567e-05
2600   0.0393419    0.455574     2.20143  -2.69245e-06
2610   0.0404296     0.45619     1.80484  7.14554e-05
2620   0.0379128    0.454764     1.21143  0.00012698
2630     0.03789    0.454751     1.32999  7.6483e-05
2640   0.0363831    0.453897     1.32999  9.97947e-05
2650   0.0358941     0.45362     1.29058  -2.54154e-05
2660   0.0368914    0.454185     1.88442  0.000109673
2670   0.0337007    0.452377     1.64707  0.000212253
2680   0.0326464    0.451779     2.43916  5.42305e-05
2690   0.0326161    0.451762     1.68644  0.000194728
2700   0.0287518    0.449572     1.96396  9.66526e-05
2710    0.030683    0.450667     1.92413  -1.05069e-05
2720    0.028962    0.449691     2.16156  0.000158238
2730   0.0275183    0.448873     2.28093  5.9952e-05
2740   0.0277629    0.449012     1.64672  4.61216e-05
2750   0.0265958     0.44835     2.39945  9.7991e-05
2760   0.0258031    0.447901     2.71623  -1.02861e-05
2770   0.0268015    0.448467     2.63672  1.34624e-05
2780   0.0255339    0.447749     3.42963  0.000183761
2790   0.0231263    0.446384     3.31118  -5.427e-06
2800   0.0256424     0.44781       3.033  -7.63145e-05
2810   0.0246526    0.447249      3.5483  3.73133e-05
2820   0.0248962    0.447387     3.35012  2.7979e-05
2830    0.024093    0.446932     2.75567  5.65996e-05
2840   0.0237642    0.446746     1.64653  4.24668e-05
2850   0.0232437    0.446451     2.28124  -1.00126e-05
2860   0.0239644    0.446859     3.15198  -3.86648e-05
2870    0.024017    0.446889     3.11297  -3.40555e-05
2880   0.0246455    0.447245     2.28066  -9.17147e-05
2890   0.0258513    0.447929     2.20089  -0.000178441
2900   0.0282144    0.449268     3.07264  4.05973e-06
2910   0.0257701    0.447883     3.03339  6.64123e-05
2920   0.0268861    0.448515     2.87473  -5.86689e-05
2930   0.0269435    0.448548     2.59767  -9.27664e-05
2940   0.0287414    0.449566     3.07256  -8.32193e-05
2950   0.0286079    0.449491      2.7163  1.82188e-05
2960   0.0283771     0.44936     2.51813  3.76866e-05
2970   0.0278541    0.449064     3.03343  0.00013502
2980   0.0256767     0.44783     2.63765  -6.43457e-05
2990    0.029141    0.449793       3.033  -0.000108006
3000   0.0278368    0.449054      2.5972  7.68957e-05
3010   0.0276031    0.448921     2.87465  0.000116307
3020   0.0255106    0.447735     2.91452  5.28527e-05
3030   0.0265461    0.448322     3.58763  5.32313e-05
3040    0.024446    0.447132     3.46926  3.35217e-05
3050   0.0258756    0.447942     2.59732  -0.000182535
3060   0.0280967    0.449201     3.74598  -3.03271e-05
3070   0.0264822    0.448286     2.59744  0.000122213
3080   0.0256525    0.447816     4.14222  0.000246119
3090   0.0215598    0.445496     3.54865  0.000261448
3100   0.0204235    0.444853     3.66744  -0.000119057
3110    0.023941    0.446846     3.86484  -6.44824e-05
3120   0.0217132    0.445583      3.5084  4.42206e-05
3130   0.0230565    0.446345     3.70626  -5.49168e-05
3140   0.0228115    0.446206     3.30983  -3.52466e-05
3150   0.0237615    0.446744     4.10219  7.95224e-05
3160    0.021221    0.445304     4.53819  0.000154454
3170   0.0206724    0.444994     3.46845  -3.0143e-05
3180   0.0218239    0.445646     3.86426  -7.52181e-05
3190   0.0221768    0.445846     3.34842  2.99353e-05
3200   0.0212252    0.445307     3.74485  8.02007e-05
3210   0.0205727    0.444937     3.34939  4.51987e-05
3220   0.0203212    0.444795     3.74555  -4.53959e-05
3230   0.0214807    0.445452     3.26969  -7.06457e-05
3240   0.0217341    0.445595     3.58658  0.000101002
3250   0.0194606    0.444307     3.66636  9.09496e-05
3260   0.0199151    0.444564     3.54695  -6.07067e-05
3270   0.0206748    0.444995     3.50739  -8.11631e-05
3280   0.0215384    0.445484     2.43738  -4.07183e-05
3290   0.0214891    0.445456     2.71464  1.5124e-05
3300   0.0212359    0.445313     2.55602  0.000173327
3310   0.0180226    0.443492     2.75474  4.58877e-05
3320   0.0203182    0.444793      2.6349  -0.000122436
3330   0.0204713     0.44488     2.39752  0.000123036
3340   0.0178575    0.443398     1.96164  0.000256631
3350   0.0153387    0.441971     2.47733  0.000103205
3360   0.0157934    0.442228     1.52611  -5.58397e-05
3370   0.0164555    0.442604     1.64498  -0.000174587
3380   0.0192851    0.444207     2.19899  2.12636e-05
3390   0.0160302    0.442363     2.19965  8.80915e-05
3400   0.0175233    0.443209     2.91247  -5.62814e-05
3410   0.0171558    0.443001     2.23917  -9.90219e-06
3420   0.0177213    0.443321      1.4468  -8.78128e-05
3430   0.0189121    0.443996     2.39725  1.08277e-05
3440   0.0175048    0.443198      2.1597  -6.75009e-05
3450   0.0202621    0.444761     1.96145  -8.30378e-05
3460   0.0191655     0.44414    0.852116  -3.13262e-05
3470   0.0208886    0.445116     1.01039  5.25609e-05
3480   0.0181143    0.443544     1.16932  9.95765e-05
3490   0.0188971    0.443987     1.04995  -8.89092e-05
3500   0.0198925    0.444552    0.455954  1.07619e-05
3510   0.0186819    0.443865    0.971293  0.000158125
3520     0.01673    0.442759    0.575286  0.000142722
3530   0.0158274    0.442248   -0.137767  3.75736e-05
3540   0.0159785    0.442333      1.0506  7.33603e-07
3550   0.0158128    0.442239    0.495589  0.000117309
3560   0.0136323    0.441004    0.614844  0.000117509
3570   0.0134626    0.440908    0.891868  1.7012e-05
3580   0.0132921    0.440811    0.852348  2.24022e-05
3590   0.0130145    0.440654    0.653861  -6.81977e-05
3600   0.0146561    0.441584    0.851691  2.25389e-05
3610   0.0125638    0.440398     1.24816  0.00012932
3620   0.0120697    0.440118     1.60449  0.000103074
3630   0.0105023     0.43923      1.0897  0.000108666
3640  0.00989633    0.438887    0.851961  0.000119825
3650  0.00810579    0.437872     1.20884  1.24421e-05
3660  0.00964749    0.438745   0.0990407  -3.57935e-05
3670  0.00882166    0.438277    0.178737  -5.76882e-05
3680   0.0108013    0.439399    0.732784  -1.43616e-05
3690  0.00910889     0.43844   -0.139044  0.000158666
3700  0.00762793    0.437601    0.296754  -2.53155e-05
3710   0.0096152    0.438727  -0.0200598  -0.000139259
3720   0.0104131    0.439179   0.0194987  1.73538e-06
3730  0.00958049    0.438708   0.0193051  -1.47454e-05
3740    0.010708    0.439347  -0.0596953  -4.19515e-05
3750   0.0104195    0.439183    0.177964  2.3446e-05
3760   0.0102391    0.439081    0.494816  0.000100258
3770  0.00841437    0.438047  -0.0200208  7.84838e-05
3780  0.00866942    0.438191  -0.0602756  -3.10343e-05
3790  0.00903506    0.438398    0.216864  -2.01172e-05
3800  0.00907177    0.438419   -0.259034  0.000117643
3810   0.0066822    0.437065    0.375329  0.00030011
3820  0.00306957    0.435018   0.0186862  0.000162686
3830  0.00342848    0.435221    0.295864  -2.48685e-05
3840  0.00356694      0.4353     1.00888  0.000169289
3850  4.27008e-05    0.433302    0.533948  0.000308508
3860  -0.00260322    0.431803    0.890088  0.000103552
3870  -0.00202834    0.432129    0.731469  1.49374e-05
3880  -0.00290197    0.431633      1.1673  -3.54096e-05
3890  -0.00132015     0.43253    0.374633  -5.77145e-05
3900  -0.00174768    0.432288    0.374594  5.96339e-05
3910  -0.00251283    0.431854    0.176764  6.54132e-05
3920  -0.00305595    0.431546    0.572578  0.000110646
3930  -0.00472575      0.4306    0.414268  0.000217932
3940  -0.00741459    0.429076    0.572578  0.000190337
3950  -0.00853248    0.428443    0.612446  5.54953e-05
3960  -0.00852449    0.428447   -0.259807  0.000191633
3970  -0.0123651     0.42627   -0.417305  0.000305306
3980  -0.0146306    0.424987   -0.140165  -9.10811e-05
3990  -0.0105435    0.427303   -0.140591  -3.39451e-05
4000  -0.0139517    0.425371    0.731353  0.00021033
4010  -0.0147501    0.424919    0.493036  4.57115e-05
4020  -0.0148659    0.424853    0.453904  -5.69861e-05
4030  -0.0136104    0.425565    0.295013  -0.000102868
4040  -0.0128086    0.426019     1.08757  4.58955e-05
4050  -0.0145283    0.425045    0.533059  0.000160751
4060  -0.0160236    0.424197    0.889585  0.000121016
4070  -0.0169486    0.423673    0.810275  0.000115731
4080  -0.0183382    0.422885    0.770833  9.29742e-05
4090  -0.0188081    0.422619    0.612059  9.91584e-05
4100  -0.0203214    0.421761    0.612252  2.98511e-05
4110  -0.0194052    0.422281    0.889469  -4.68018e-06
4120  -0.0202278    0.421815     1.36452  3.58881e-05
4130  -0.0201229    0.421874     1.72066  8.85042e-05
4140  -0.0219979    0.420811     1.28575  3.02797e-05
4150  -0.0207285    0.421531     1.32492  -0.00012714
4160  -0.0194551    0.422252     1.32488  -1.04806e-05
4170  -0.0205189     0.42165     1.64158  -4.867e-06
4180  -0.0193577    0.422308    0.770214  5.99258e-05
4190  -0.0217174     0.42097     1.36467  2.45372e-05
4200  -0.0198485    0.422029    0.928834  -3.39635e-05
4210  -0.0210381    0.421355     1.36455  -2.25494e-05
4220  -0.0193975    0.422285     1.12659  3.08713e-05
4230  -0.0216556    0.421005    0.730695  0.000131381
4240  -0.0220251    0.420796    0.770408  0.000102316
4250  -0.0237019    0.419846   0.0179121  0.000108498
4260  -0.0241951    0.419566    0.453439  -7.5694e-05
4270   -0.022188    0.420704   -0.260311  -5.78223e-05
4280  -0.0230386    0.420222    0.413185  -2.8384e-05
4290  -0.0216203    0.421025    0.571611  7.63563e-06
4300  -0.0231913    0.420135    0.730153  1.40937e-06
4310  -0.0216485    0.421009      1.0465  7.98222e-05
4320  -0.0247878     0.41923     1.40407  9.17147e-05
4330  -0.0234828     0.41997     2.11689  -7.6425e-05
4340  -0.0232593    0.420097     1.44313  -2.24258e-05
4350  -0.0230343    0.420224     1.16572  -4.35421e-06
4360  -0.0231722    0.420146     1.72054  7.74087e-06
4370  -0.0231891    0.420136     1.20528  -9.54642e-05
4380  -0.0212629    0.421228     1.00737  -0.000119959
4390  -0.0207899    0.421496     1.00718  9.88771e-05
4400  -0.0232404    0.420107    0.968083  0.000160033
4410  -0.0239906    0.419682    0.928138  0.000142427
4420   -0.026089    0.418493    0.888889  9.37866e-05
4430  -0.0258663    0.418619    0.769944  -1.00389e-05
4440  -0.0258882    0.418607    0.690286  3.29616e-05
4450  -0.0265256    0.418245    0.650843  2.21655e-06
4460  -0.0259325    0.418582     0.57165  -2.85259e-05
4470   -0.025955    0.418569     1.12589  2.2376e-06
4480  -0.0259773    0.418556     1.36304  2.24542e-06
4490      -0.026    0.418543    0.451814  0.00014498
4500  -0.0288769    0.416913    0.333527  0.000194978
4510  -0.0298995    0.416333  -0.0226519  0.000139816
4520  -0.0316732    0.415328   0.0169063  0.000134013
4530  -0.0325798    0.414814    0.412605  0.000128336
4540    -0.03424    0.413874    0.650418  2.85339e-05
4550  -0.0331504    0.414491    0.769286  -0.000140516
4560  -0.0314296    0.415466    0.967347  -5.2971e-05
4570   -0.032091    0.415091    0.768938  0.00026779
4580  -0.0367854    0.412431     1.24468    0.000199
4590   -0.036071    0.412836    0.531588  -9.68499e-05
4600  -0.0348484    0.413529    0.333449  -2.74925e-05
4610  -0.0355212    0.413147     1.36378  0.000130845
4620  -0.0374653    0.412046    0.888695  -0.00010397
4630  -0.0334418    0.414326     1.79904  -0.000199334
4640  -0.0334786    0.414305     1.52201  7.38798e-05
4650  -0.0349194    0.413488    0.888773  -6.0202e-05
4660  -0.0322746    0.414987      1.0861  -9.20592e-05
4670  -0.0330782    0.414532     1.79962  0.000119008
4680  -0.0346548    0.413638     1.48245  3.66531e-06
4690  -0.0331515     0.41449    0.848518  -7.33171e-05
4700  -0.0331884    0.414469    0.927635  -0.000118902
4710  -0.0307735    0.415838     1.60078  -9.22121e-06
4720   -0.033004    0.414574     2.11604  7.45107e-05
4730  -0.0322637    0.414994     1.12527  9.45359e-05
4740  -0.0348947    0.413502     1.24491  0.000159586
4750  -0.0354554    0.413185     1.12585  1.05754e-05
4760  -0.0351062    0.413383    0.491604  0.000206478
4770   -0.039585    0.410844     1.12612  0.000285286
4780  -0.0408119    0.410149    0.729844  0.000142588
4790  -0.0424367    0.409228     1.00729  2.49289e-05
4800  -0.0413105    0.409866     1.60144  5.81535e-05
4810  -0.0435998    0.408569      1.2842  0.000262331
4820  -0.0465571    0.406893     1.64107  7.84287e-05
4830  -0.0451684     0.40768     1.87858  -0.000112676
4840  -0.0443036     0.40817      1.7198  -0.000106547
4850  -0.0430374    0.408888     1.36305  -3.38847e-05
4860  -0.0436259    0.408554     1.75913  4.5664e-05
4870  -0.0439507     0.40837     1.60055  2.58651e-05
4880  -0.0441432    0.408261     1.36293  -0.000127647
4890  -0.0413978    0.409817     1.08525  -6.76429e-05
4900  -0.0427904    0.409028     1.36235  9.26219e-05
4910  -0.0432502    0.408767    0.886993  -7.68565e-06
4920  -0.0426367    0.409115     1.79834  -8.83993e-05
4930  -0.0414822    0.409769    0.807722  -7.52155e-05
4940  -0.0411323    0.409967    0.887148  5.51641e-06
4950  -0.0415925    0.409707    0.768009  6.64176e-05
4960  -0.0424607    0.409215    0.688622  0.000127698
4970  -0.0441465    0.408259     1.48149  0.000114532
4980  -0.0447513    0.407916     1.40191  -6.88367e-05
4990  -0.0427698    0.409039     1.36188  -0.000252206
