Time   Number   
ps   
0          27          33
10          30          36
20          29          39
30          26          28
40          28          38
50          30          40
60          31          37
70          29          37
80          29          33
90          30          36
100          28          32
110          28          36
120          25          33
130          23          33
140          26          32
150          24          32
160          28          34
170          29          33
180          27          29
190          29          39
200          26          34
210          28          32
220          25          39
230          24          30
240          27          33
250          28          40
260          30          38
270          20          38
280          28          28
290          23          31
300          25          33
310          27          39
320          25          39
330          26          36
340          25          27
350          28          30
360          21          31
370          24          28
380          23          31
390          22          26
400          23          37
410          23          31
420          23          35
430          30          36
440          28          36
450          29          31
460          27          31
470          26          34
480          27          31
490          27          27
500          26          32
510          26          32
520          27          31
530          29          29
540          30          32
550          30          34
560          30          32
570          27          35
580          31          37
590          29          37
600          31          37
610          28          34
620          27          37
630          30          34
640          30          32
650          31          31
660          26          32
670          30          34
680          25          31
690          30          32
700          25          37
710          29          31
720          29          35
730          24          38
740          25          29
750          26          30
760          28          34
770          26          34
780          25          29
790          23          31
800          21          29
810          23          31
820          30          30
830          26          34
840          23          25
850          28          36
860          25          31
870          20          34
880          22          26
890          27          29
900          26          26
910          24          30
920          22          28
930          25          33
940          22          30
950          27          27
960          27          29
970          24          26
980          23          29
990          25          27
1000          25          29
1010          25          29
1020          25          27
1030          25          27
1040          24          34
1050          26          30
1060          25          33
1070          24          28
1080          25          31
1090          25          29
1100          27          29
1110          29          29
1120          28          30
1130          22          32
1140          26          30
1150          25          27
1160          27          37
1170          28          28
1180          25          29
1190          23          29
1200          24          32
1210          26          34
1220          24          30
1230          26          30
1240          26          30
1250          24          26
1260          24          24
1270          22          26
1280          25          25
1290          20          22
1300          23          27
1310          19          25
1320          21          25
1330          23          27
1340          21          27
1350          25          27
1360          27          29
1370          21          33
1380          21          29
1390          22          30
1400          26          28
1410          23          35
1420          19          33
1430          27          33
1440          24          28
1450          23          27
1460          22          26
1470          21          27
1480          22          26
1490          22          30
1500          20          26
1510          23          31
1520          22          26
1530          25          29
1540          26          30
1550          23          25
1560          25          29
1570          24          26
1580          22          28
1590          18          28
1600          20          26
1610          20          28
1620          22          34
1630          25          27
1640          23          29
1650          25          29
1660          28          30
1670          29          31
1680          26          34
1690          22          32
1700          24          26
1710          24          24
1720          23          23
1730          23          29
1740          20          24
1750          25          31
1760          25          29
1770          24          28
1780          21          27
1790          20          30
1800          23          29
1810          25          27
1820          19          27
1830          24          28
1840          24          28
1850          20          28
1860          26          26
1870          21          25
1880          21          27
1890          22          26
1900          20          28
1910          21          29
1920          24          26
1930          21          27
1940          21          29
1950          24          28
1960          21          23
1970          22          26
1980          21          27
1990          25          25
2000          22          34
2010          25          29
2020          21          31
2030          20          32
2040          25          29
2050          22          28
2060          24          30
2070          24          26
2080          24          32
2090          23          33
2100          27          29
2110          23          31
2120          23          25
2130          23          33
2140          24          26
2150          27          27
2160          29          31
2170          26          28
2180          26          28
2190          26          28
2200          22          28
2210          24          28
2220          26          32
2230          24          34
2240          28          28
2250          26          32
2260          24          32
2270          29          33
2280          26          30
2290          27          31
2300          27          37
2310          30          32
2320          29          39
2330          30          36
2340          29          31
2350          29          35
2360          24          34
2370          30          32
2380          30          34
2390          30          34
2400          30          36
2410          33          35
2420          31          35
2430          32          34
2440          31          33
2450          28          34
2460          29          39
2470          29          29
2480          28          38
2490          25          35
2500          27          29
2510          27          29
2520          26          30
2530          25          29
2540          29          31
2550          28          32
2560          26          28
2570          28          32
2580          25          33
2590          28          28
2600          30          32
2610          26          32
2620          25          33
2630          27          37
2640          30          34
2650          25          31
2660          28          32
2670          29          33
2680          26          28
2690          28          36
2700          28          32
2710          31          37
2720          29          33
2730          30          34
2740          26          32
2750          25          31
2760          30          36
2770          27          33
2780          28          34
2790          30          36
2800          31          37
2810          28          36
2820          24          36
2830          28          36
2840          26          32
2850          31          35
2860          28          34
2870          25          33
2880          23          37
2890          25          35
2900          23          29
2910          21          29
2920          27          29
2930          23          29
2940          25          27
2950          28          34
2960          26          28
2970          25          27
2980          27          29
2990          27          29
3000          25          33
3010          27          29
3020          26          30
3030          30          32
3040          28          30
3050          29          31
3060          26          30
3070          25          31
3080          26          30
3090          26          36
3100          26          30
3110          23          33
3120          27          29
3130          27          33
3140          23          33
3150          23          29
3160          26          32
3170          27          29
3180          24          32
3190          26          28
3200          26          32
3210          29          37
3220          28          28
3230          25          29
3240          29          33
3250          30          32
3260          27          29
3270          29          31
3280          23          31
3290          25          31
3300          27          27
3310          25          31
3320          26          28
3330          30          30
3340          26          36
3350          22          32
3360          26          28
3370          29          29
3380          24          28
3390          27          31
3400          28          32
3410          27          29
3420          30          32
3430          27          33
3440          27          35
3450          28          32
3460          24          32
3470          26          38
3480          25          37
3490          29          35
3500          26          36
3510          30          34
3520          29          35
3530          24          26
3540          26          40
3550          22          30
3560          29          35
3570          31          31
3580          31          33
3590          28          36
3600          33          33
3610          32          34
3620          28          34
3630          26          30
3640          27          33
3650          27          33
3660          27          33
3670          31          35
3680          25          35
3690          30          32
3700          29          35
3710          26          36
3720          25          31
3730          26          34
3740          26          28
3750          28          40
3760          28          38
3770          27          33
3780          30          36
3790          28          32
3800          32          32
3810          24          30
3820          29          35
3830          27          35
3840          27          33
3850          30          36
3860          24          38
3870          28          32
3880          30          32
3890          26          34
3900          26          36
3910          28          38
3920          30          34
3930          29          37
3940          26          28
3950          29          35
3960          27          35
3970          33          35
3980          30          32
3990          29          33
4000          26          36
4010          31          37
4020          29          39
4030          26          36
4040          31          35
4050          30          40
4060          30          36
4070          29          33
4080          29          37
4090          28          34
4100          32          36
4110          32          36
4120          30          36
4130          26          36
4140          30          32
4150          31          39
4160          28          34
4170          30          34
4180          27          39
4190          24          32
4200          30          30
4210          25          31
4220          27          29
4230          31          31
4240          29          31
4250          25          31
4260          27          33
4270          26          30
4280          25          33
4290          28          32
4300          26          34
4310          24          34
4320          24          28
4330          23          33
4340          25          31
4350          23          33
4360          25          29
4370          21          25
4380          25          31
4390          23          29
4400          25          29
4410          21          25
4420          21          25
4430          24          32
4440          24          28
4450          25          29
4460          28          30
4470          26          28
4480          27          31
4490          26          28
4500          25          33
4510          22          34
4520          22          34
4530          22          30
4540          23          29
4550          25          27
4560          27          27
4570          23          27
4580          26          30
4590          25          27
4600          22          28
4610          25          25
4620          22          30
4630          24          26
4640          23          27
4650          23          27
4660          23          27
4670          22          24
4680          24          28
4690          24          32
4700          21          27
4710          21          27
4720          25          29
4730          23          31
4740          23          29
4750          21          27
4760          24          30
4770          25          31
4780          25          31
4790          24          32
4800          23          29
4810          25          25
4820          26          28
4830          22          28
4840          22          24
4850          22          30
4860          23          25
4870          27          33
4880          26          30
4890          24          36
4900          27          35
4910          27          29
4920          31          33
4930          28          28
4940          26          28
4950          26          26
4960          26          34
4970          23          31
4980          26          32
4990          28          32
5000          26          32
5010          23          31
5020          23          33
5030          28          28
5040          28          28
5050          24          32
5060          26          28
5070          25          29
5080          23          27
5090          24          26
5100          23          31
5110          26          26
5120          25          33
5130          26          30
5140          28          32
5150          27          35
5160          20          36
5170          26          30
5180          24          30
5190          27          31
5200          24          34
5210          25          29
5220          25          29
5230          24          30
5240          25          35
5250          28          34
5260          24          32
5270          25          29
5280          27          31
5290          25          33
5300          25          29
5310          24          30
5320          22          26
5330          26          32
5340          26          30
5350          24          30
5360          26          34
5370          26          30
5380          23          25
5390          27          29
5400          26          30
5410          27          31
5420          23          31
5430          23          29
5440          23          23
5450          23          27
5460          24          28
5470          24          28
5480          27          27
5490          23          33
5500          25          27
5510          22          30
5520          23          31
5530          22          32
5540          25          31
5550          24          30
5560          20          24
5570          24          26
5580          20          24
5590          22          28
5600          27          31
5610          25          31
5620          28          32
5630          27          31
5640          26          30
5650          25          35
5660          25          35
5670          25          33
5680          28          30
5690          27          29
5700          26          30
5710          24          32
5720          28          34
5730          24          28
5740          27          27
5750          26          26
5760          22          30
5770          25          31
5780          24          32
5790          24          32
5800          26          34
5810          25          29
5820          23          27
5830          25          27
5840          26          28
5850          22          28
5860          25          31
5870          28          30
5880          26          32
5890          26          32
5900          23          35
5910          25          35
5920          28          36
5930          28          32
5940          26          30
5950          29          29
5960          24          32
5970          28          34
5980          27          33
5990          23          25
6000          28          32
6010          26          36
6020          30          34
6030          29          31
6040          30          34
6050          28          34
6060          26          32
6070          31          37
6080          28          30
6090          28          32
6100          26          32
6110          28          30
6120          27          31
6130          30          32
6140          29          35
6150          24          34
6160          29          31
6170          32          34
6180          26          36
6190          28          38
6200          29          33
6210          25          31
6220          24          30
6230          24          30
6240          23          27
6250          28          32
6260          30          36
6270          28          32
6280          25          37
6290          26          32
6300          24          34
6310          25          37
6320          22          30
6330          27          29
6340          19          37
6350          25          29
6360          27          29
6370          26          32
6380          22          34
6390          24          28
6400          28          32
6410          29          29
6420          25          29
6430          29          31
6440          24          30
6450          28          34
6460          24          32
6470          28          38
6480          26          32
6490          26          34
6500          24          28
6510          24          28
6520          24          28
6530          27          31
6540          22          26
6550          21          27
6560          25          31
6570          25          37
6580          19          27
6590          20          26
6600          25          25
6610          25          33
6620          26          28
6630          20          28
6640          24          32
6650          23          33
6660          25          33
6670          19          29
6680          25          35
6690          26          34
6700          25          33
6710          23          31
6720          22          26
6730          22          30
6740          22          26
6750          23          29
6760          28          32
6770          25          27
6780          22          26
6790          25          29
6800          22          26
6810          24          26
6820          23          31
6830          20          28
6840          22          24
6850          19          27
6860          23          27
6870          21          27
6880          22          24
6890          23          25
6900          23          35
6910          23          25
6920          20          24
6930          23          25
6940          22          30
6950          24          26
6960          24          26
6970          27          27
6980          23          29
6990          27          31
7000          26          28
7010          25          29
7020          21          27
7030          24          28
7040          24          30
7050          25          27
7060          24          30
7070          23          29
7080          25          25
7090          25          27
7100          23          27
7110          24          28
7120          23          31
7130          23          27
7140          23          27
7150          28          32
7160          23          29
7170          21          29
7180          28          36
7190          25          37
7200          24          28
7210          26          34
7220          24          28
7230          24          26
7240          25          31
7250          25          27
7260          25          29
7270          22          26
7280          23          31
7290          24          32
7300          25          29
7310          23          33
7320          23          31
7330          25          27
7340          21          29
7350          27          35
7360          26          32
7370          23          29
7380          24          32
7390          23          25
7400          24          28
7410          25          29
7420          20          28
7430          22          32
7440          23          33
7450          22          38
7460          23          35
7470          26          34
7480          28          28
7490          26          32
7500          26          32
7510          24          32
7520          22          28
7530          25          25
7540          24          32
7550          23          29
7560          24          32
7570          23          27
7580          24          28
7590          22          30
7600          23          29
7610          23          33
7620          24          30
7630          23          23
7640          24          30
7650          24          32
7660          21          29
7670          22          24
7680          22          26
7690          26          30
7700          24          28
7710          22          30
7720          23          27
7730          26          28
7740          21          29
7750          25          27
7760          25          27
7770          24          30
7780          21          27
7790          23          31
7800          25          31
7810          20          36
7820          24          32
7830          24          40
7840          24          30
7850          19          29
7860          24          30
7870          25          27
7880          22          26
7890          23          29
7900          19          27
7910          24          28
7920          26          32
7930          27          27
7940          26          28
7950          27          27
7960          24          32
7970          25          31
7980          25          35
7990          27          29
8000          28          30
8010          25          29
8020          24          30
8030          26          34
8040          22          32
8050          22          34
8060          24          26
8070          26          32
8080          29          31
8090          29          35
8100          26          34
8110          30          34
8120          26          34
8130          32          36
8140          30          34
8150          26          30
8160          25          33
8170          25          35
8180          30          34
8190          27          35
8200          32          38
8210          29          35
8220          26          38
8230          27          35
8240          25          33
8250          22          28
8260          27          29
8270          22          28
8280          27          31
8290          27          37
8300          21          39
8310          25          31
8320          26          32
8330          26          30
8340          27          29
8350          29          31
8360          27          33
8370          29          35
8380          31          33
8390          29          31
8400          26          36
8410          27          29
8420          24          34
8430          28          32
8440          27          29
8450          30          38
8460          28          30
8470          26          40
8480          27          35
8490          27          33
8500          27          37
8510          28          30
8520          26          32
8530          28          32
8540          26          36
8550          26          36
8560          25          29
8570          23          35
8580          25          31
8590          25          31
8600          27          29
8610          24          30
8620          24          26
8630          28          32
8640          26          30
8650          26          28
8660          23          33
8670          21          27
8680          22          26
8690          24          32
8700          21          31
8710          24          32
8720          24          32
8730          26          38
8740          29          33
8750          28          28
8760          27          35
8770          28          32
8780          31          31
8790          29          33
8800          25          33
8810          27          31
8820          24          30
8830          25          29
8840          26          30
8850          24          28
8860          23          33
8870          28          30
8880          23          25
8890          25          31
8900          25          39
8910          26          32
8920          26          34
8930          23          39
8940          25          29
8950          26          30
8960          27          29
8970          25          39
8980          23          35
8990          30          32
9000          28          34
9010          27          37
9020          29          35
9030          28          38
9040          29          35
9050          29          31
9060          27          31
9070          30          34
9080          27          39
9090          30          36
9100          28          38
9110          27          33
9120          27          35
9130          31          35
9140          23          29
9150          26          30
9160          27          33
9170          27          35
9180          25          33
9190          27          35
9200          30          30
9210          28          34
9220          29          33
9230          29          33
9240          25          33
9250          27          31
9260          29          33
9270          26          30
9280          30          34
9290          26          32
9300          27          33
9310          28          34
9320          29          35
9330          31          39
9340          28          34
9350          30          34
9360          23          37
9370          31          35
9380          32          36
9390          30          36
9400          32          34
9410          30          40
9420          30          36
9430          29          39
9440          34          34
9450          29          37
9460          32          32
9470          31          35
9480          30          36
9490          28          36
9500          30          30
9510          30          36
9520          32          36
9530          30          38
9540          32          44
9550          34          36
9560          32          38
9570          32          38
9580          30          36
9590          33          43
9600          28          42
9610          31          39
9620          28          40
9630          29          39
9640          29          43
9650          31          35
9660          29          35
9670          33          37
9680          29          39
9690          30          36
9700          29          37
9710          30          36
9720          31          35
9730          31          37
9740          30          36
9750          28          38
9760          31          39
9770          29          35
9780          28          40
9790          28          34
9800          33          35
9810          32          38
9820          32          34
9830          26          36
9840          31          33
9850          32          32
9860          30          30
9870          28          36
9880          29          33
9890          27          37
9900          27          29
9910          28          40
9920          31          35
9930          30          32
9940          23          33
9950          26          36
9960          22          22
9970          25          33
9980          26          34
9990          28          40
10000          31          37
