Time   C(t)   
ps   
0           1           1  3.39657e-10    0.021327
10    0.792494    0.796256   0.0710367   0.0132905
20     0.73419    0.739008     2.08899  0.00525402
30    0.687414    0.693081    0.858398   0.0043975
40     0.64624    0.652653     3.31118  0.00381022
50    0.611209    0.618258   -0.112853  0.00336168
60    0.579006    0.586638     1.02669  0.00295111
70    0.552187    0.560306    0.674336  0.00253506
80    0.528305    0.536856     2.07502  0.00233337
90     0.50552    0.514484    0.143916  0.00216183
100    0.485068    0.494403    0.404799  0.00202074
110    0.465105    0.474802    -1.61521   0.0020425
120    0.444218    0.454294   -0.914524  0.00190951
130    0.426915    0.437304    -1.96954  0.00170999
140    0.410018    0.420714   -0.216238  0.00162494
150    0.394416    0.405395     3.29293  0.00157505
160    0.378517    0.389784     1.62374  0.00151165
170    0.364183     0.37571     2.06234  0.00139932
180    0.350531    0.362305     1.18316  0.00130431
190    0.338097    0.350096    -1.01054  0.00118237
200    0.326883    0.339087     1.53295   0.0010868
210    0.316361    0.328754     1.26889  0.00106229
220    0.305638    0.318226     3.28608  0.000966196
230    0.297037    0.309781     3.63595  0.000887804
240    0.287882    0.300792     3.19717   0.0008672
250    0.279693    0.292751     2.05523  0.00073016
260    0.273278    0.286453     1.26375  0.000736238
270    0.264968    0.278293     2.05248  0.000728673
280    0.258705    0.272144    0.998758  0.000730281
290    0.250362    0.263953   -0.756255  0.000740684
300    0.243891    0.257599    0.734619  0.000625229
310    0.237858    0.251675   0.0322194  0.000612999
320    0.231631    0.245561    0.908997  0.000623289
330    0.225392    0.239435      1.3476  0.000597479
340    0.219682    0.233828     2.57554  0.000512834
350    0.215135    0.229364     1.60951  0.000468697
360    0.210308    0.224624     2.13565  0.000487774
370     0.20538    0.219786     1.78363  0.000461564
380    0.201077     0.21556     3.18638  0.000453476
390     0.19631    0.210881   0.0276773  0.000477131
400    0.191534    0.206191    -0.58796  0.000428075
410    0.187749    0.202474   -0.323822  0.000451791
420    0.182498    0.197319   -0.763625  0.000352338
430    0.180702    0.195555  -0.0640527  0.000357825
440    0.175342    0.190292  -0.0628534  0.000413218
450    0.172438    0.187441    0.813582  0.00040964
460    0.167149    0.182248     1.16577  0.000410382
470     0.16423    0.179382     1.07704  0.000278433
480     0.16158     0.17678    0.725278  0.000352445
490    0.157181    0.172461   -0.502742  0.000380667
500    0.153967    0.169305     3.00754  0.000284971
510    0.151482    0.166865      2.6569  0.000257988
520    0.148807    0.164239     1.77849  0.000240093
530     0.14668     0.16215     1.34049  0.000263692
540    0.143533     0.15906     2.83282  0.000305748
550    0.140565    0.156146     2.04143  0.000209338
560    0.139346    0.154949     1.16328  0.000242268
570    0.135719    0.151388     3.00677  0.000302874
580    0.133289    0.149002     2.12853  0.000303581
590    0.129648    0.145427     0.72425  0.000355226
600    0.126184    0.142026   0.0223651  0.000346699
610    0.122714    0.138618   -0.767395  0.000296266
620    0.120259    0.136208     2.03963  0.000231754
630    0.118079    0.134067    0.196058  0.000269558
640    0.114868    0.130915     1.33663  0.000288746
650    0.112304    0.128397     1.07266  0.000270714
660    0.109454    0.125599      2.7398  0.000266605
670    0.106972    0.123162     2.65236  0.000262507
680    0.104204    0.120444     1.24876  0.000239624
690    0.102179    0.118456    0.458055  0.000240183
700   0.0993999    0.115727    0.633119  0.000250049
710   0.0971783    0.113546    0.369666  0.000245917
720   0.0944816    0.110898     1.59846  0.000246422
730   0.0922498    0.108707     1.77369  0.000228128
740    0.089919    0.106418     0.36958  0.000214466
750   0.0879605    0.104495     1.59786  0.000144114
760   0.0870367    0.103588     2.12374  0.000210669
770   0.0837471    0.100358     1.07069  0.000210997
780   0.0828168   0.0994447    0.719109  0.000140515
790   0.0809368   0.0975988     1.68402  0.000183457
800   0.0791477    0.095842     2.64996  0.000183858
810   0.0772597   0.0939883    0.806641  0.000174746
820   0.0756527   0.0924105   0.0155956  0.000122801
830   0.0748036   0.0915768     1.15668  9.92931e-05
840   0.0736669   0.0904606    0.717652  0.000113799
850   0.0725277   0.0893421     0.89323  0.000133144
860    0.071004    0.087846     1.85823  0.000114298
870   0.0702417   0.0870975     1.15583  0.000148084
880   0.0680423    0.084938    0.892288  0.000229759
890   0.0656465   0.0825857     1.41868  0.000148733
900   0.0650676   0.0820173    0.804156  0.00014436
910   0.0627593   0.0797508    0.803728  0.000154196
920   0.0619837   0.0789893    0.891859  0.000135376
930   0.0600518   0.0770924   0.0142246  0.000159691
940   0.0587899   0.0758534   -0.688089  0.000111864
950   0.0578145   0.0748957     -0.2494  9.28203e-05
960   0.0569335   0.0740306   -0.951628  0.000112362
970   0.0555673   0.0726892   -0.337104  0.000151286
980   0.0539078   0.0710598    0.891517  0.00013223
990   0.0529227   0.0700925   -0.688432  0.000108322
1000   0.0517413   0.0689326    -1.03959  0.000152237
1010   0.0498779    0.067103    -0.68826  0.00012338
1020   0.0492737   0.0665097   -0.250428  9.94036e-05
1030   0.0478899   0.0651509      0.1003  0.000119063
1040   0.0468925   0.0641716    0.627121  7.54697e-05
1050   0.0463805   0.0636689    0.276049  0.000100071
1060   0.0448911   0.0622065    0.451457   0.0001149
1070   0.0440825   0.0614126    0.538817  1.24656e-05
1080   0.0446418   0.0619617     1.32849  4.19555e-05
1090   0.0432433   0.0605887     1.15308  5.66462e-05
1100   0.0435088   0.0608493     1.50373  1.75998e-05
1110   0.0428913    0.060243     1.59169  3.72471e-05
1120   0.0427639   0.0601179      1.7671  7.84099e-06
1130   0.0427345   0.0600891     1.67896  5.71147e-05
1140   0.0416216   0.0589963     3.25823  6.7044e-05
1150   0.0413936   0.0587725      1.8548  6.23103e-05
1160   0.0403754   0.0577727     3.08359  0.000121708
1170   0.0389595   0.0563825     3.08419  0.000102171
1180    0.038332   0.0557663     3.69794  5.29174e-05
1190   0.0379011   0.0553433     4.04841  6.79262e-05
1200   0.0369734   0.0544324     4.66294  3.82671e-05
1210   0.0371358   0.0545918     4.83877  -1.34427e-06
1220   0.0370003   0.0544588      4.3117  8.58698e-06
1230   0.0369641   0.0544232     3.52185  5.84245e-05
1240   0.0358318   0.0533115     4.39923  0.000123326
1250   0.0344975   0.0520014     2.55703  5.86923e-05
1260    0.034658    0.052159      3.6099  4.89159e-05
1270   0.0335192   0.0510408     3.69743  0.000114007
1280   0.0323779   0.0499202     3.08299  6.41705e-05
1290   0.0322358   0.0497807     3.87224  5.93591e-05
1300   0.0311907   0.0487545     3.96011  0.000129744
1310   0.0296409   0.0472329     3.17061  0.000109905
1320   0.0289926   0.0465962     2.29314  3.97481e-05
1330    0.028846   0.0464523     1.50261  2.97905e-05
1340   0.0283967   0.0460112     2.99426  5.00216e-05
1350   0.0278455     0.04547     2.46795  5.51824e-05
1360   0.0272931   0.0449276      1.8536  6.54212e-05
1370   0.0265371   0.0441853     1.85343  5.54373e-05
1380   0.0261844   0.0438389     1.76547  4.90993e-06
1390   0.0264389   0.0440889      2.2916  4.95696e-06
1400   0.0260852   0.0437416     2.38025  -2.04664e-05
1410   0.0268483   0.0444908     2.90587  -5.09647e-05
1420   0.0271045   0.0447424      3.6952  -1.03795e-05
1430   0.0270558   0.0446946     3.43141  2.52634e-05
1440   0.0265992   0.0442463     3.43149  5.08158e-05
1450   0.0260395   0.0436967     3.87001  4.07086e-05
1460   0.0257851   0.0434469     3.43183  -1.03329e-05
1470   0.0262462   0.0438997     3.69452  4.09016e-05
1480    0.024967   0.0426437     3.51945  9.72986e-05
1490   0.0243002    0.041989     3.51937  3.08249e-05
1500   0.0243505   0.0420384     3.60741  -2.55956e-05
1510   0.0248121   0.0424916     2.72892  9.73232e-08
1520   0.0243486   0.0420365     2.55394  5.67118e-05
1530   0.0236779   0.0413779     2.72943  6.71502e-05
1540   0.0230056   0.0407178     2.64165  0.000103457
1550   0.0216088   0.0393463     2.37802  0.00012434
1560   0.0205188   0.0382761     1.85223  6.25385e-05
1570    0.020358   0.0381182     1.85223  4.71945e-05
1580   0.0195749   0.0373493     2.64225  8.35899e-05
1590   0.0186862   0.0364767     2.11602  4.74192e-05
1600   0.0186265   0.0364181     2.37836  5.97378e-06
1610   0.0185667   0.0363594     1.50081  3.72315e-05
1620   0.0178819    0.035687    0.886461  0.00011027
1630   0.0163613    0.034194    0.887318  0.000100044
1640    0.015881   0.0337224    0.623436  4.80878e-05
1650   0.0153995   0.0332497    0.360497  1.68107e-05
1660   0.0155448   0.0333923    0.272108  1.16497e-05
1670   0.0151665   0.0330209    0.886547  7.98277e-05
1680   0.0139482   0.0318247      1.2377  6.4216e-05
1690   0.0138822   0.0317598     1.58869  2.23815e-05
1700   0.0135006   0.0313851    0.886547  2.24165e-05
1710   0.0134339   0.0313196     1.23702  1.40928e-06
1720   0.0134724   0.0313575     1.58792  6.69635e-06
1730      0.0133   0.0311881     1.32506  1.72648e-05
1740   0.0131271   0.0310184     1.32506  5.43307e-05
1750   0.0122134   0.0301212      1.0617  3.85312e-05
1760   0.0123565   0.0302618    0.447087  1.74805e-05
1770   0.0118637    0.029778    0.973565  9.7112e-05
1780   0.0104143   0.0283548     0.88629  7.07163e-05
1790   0.0104494   0.0283893      1.1494  -8.84295e-06
1800   0.0105911   0.0285284     1.14914  7.1249e-06
1810   0.0103069   0.0282494    0.359212  5.51274e-05
1820  0.00948858   0.0274458    0.271766  8.72756e-05
1830  0.00856141   0.0265355    0.359297  2.33114e-05
1840  0.00902235   0.0269881   -0.694516  -3.54409e-05
1850  0.00927023   0.0272315   -0.343702  2.87884e-05
1860  0.00844658   0.0264227   -0.694858  5.0262e-05
1870  0.00826499   0.0262444    -1.92339  -3.01834e-05
1880  0.00905025   0.0270155   -0.958397  -8.67667e-06
1890  0.00843852   0.0264148   0.0943015  7.37691e-06
1900  0.00890271   0.0268706   -0.607755  -3.02945e-05
1910  0.00904441   0.0270097   -0.695544  -1.95888e-05
1920  0.00929448   0.0272553    -0.51988   1.822e-05
1930  0.00868001   0.0266519   -0.783419  -3.44343e-06
1940  0.00936335   0.0273229  -0.0814482  7.46911e-06
1950  0.00853063   0.0265053   -0.432433  3.45302e-05
1960  0.00867275   0.0266448   -0.257026  -8.79569e-06
1970  0.00870654    0.026678   -0.432091  -1.42655e-05
1980  0.00895806   0.0269249   0.0940446  -1.42875e-05
1990  0.00899229   0.0269586   -0.168894  7.48164e-06
2000  0.00880843    0.026778   -0.519965  3.47927e-05
2010  0.00829644   0.0262753   -0.257026  3.48594e-05
2020  0.00811124   0.0260935    -1.22245  2.40176e-05
2030  0.00781609   0.0258037   -0.257113  2.14302e-06
2040  0.00806838   0.0260514    -1.22271  -8.01486e-05
2050  0.00941906   0.0273776    -1.22296  -6.37943e-05
2060  0.00934427   0.0273042   -0.959426  1.29919e-05
2070  0.00915922   0.0271225    -1.22262  7.50828e-06
2080   0.0091941   0.0271567    -1.31007  1.85738e-05
2090  0.00878775   0.0267577   -0.696058  5.7258e-05
2100  0.00804894   0.0260323    -1.92425  8.50347e-05
2110  0.00708705   0.0250879    -1.92416  4.09361e-05
2120  0.00723022   0.0252284     -1.3982  -2.5425e-05
2130  0.00759555   0.0255871    -0.78359  -3.26955e-06
2140  0.00729561   0.0252926   -0.959511  4.67091e-05
2150  0.00666137   0.0246699   -0.783933  4.68066e-05
2160  0.00635948   0.0243735   -0.170266  2.46549e-05
2170  0.00616827   0.0241857   -0.257541  1.35659e-05
2180  0.00608816   0.0241071   -0.696401  2.47829e-05
2190  0.00567262   0.0236991   -0.433205  3.04188e-05
2200  0.00547978   0.0235097    -1.31041  -8.70058e-06
2210  0.00584663   0.0238699    -2.01264  3.05746e-05
2220  0.00486829   0.0229093    -2.01264  4.17989e-05
2230  0.00501065   0.0230491    -2.53929  -3.00652e-06
2240  0.00492842   0.0229684    -1.39863  3.07534e-05
2250  0.00439558   0.0224452      -1.135   6.463e-05
2260  0.00363582   0.0216992    -2.10043  1.39786e-05
2270  0.00411601   0.0221707    -1.83732  -1.41673e-05
2280  0.00391917   0.0219774    -1.92519  -3.12279e-05
2290  0.00474056   0.0227839    -2.10111  -4.8243e-05
2300  0.00488403   0.0229248   -0.872408  2.65737e-06
2310  0.00468742   0.0227317    -2.01324  1.96865e-05
2320   0.0044903   0.0225382    -2.27618  -8.70798e-06
2330  0.00486158   0.0229027    -1.13535  -3.71763e-05
2340  0.00523382   0.0232682    -1.57404  -1.44565e-05
2350  0.00515071   0.0231866     -2.1883  1.97446e-05
2360  0.00483893   0.0228805    -3.24117  1.40619e-05
2370  0.00486947   0.0229105    -2.80266  2.66884e-06
2380  0.00478555   0.0228281    -2.36397  1.98699e-05
2390  0.00447207   0.0225203    -2.80266  2.56485e-05
2400  0.00427258   0.0223244    -2.89045  1.99751e-05
2410  0.00407257    0.022128    -2.18856  2.57842e-05
2420   0.0037569   0.0218181    -3.24143  3.16085e-05
2430   0.0034404   0.0215073    -2.18822  2.59205e-05
2440  0.00323849   0.0213091    -2.01272  -2.90103e-06
2450  0.00349842   0.0215643    -1.83706  -2.87847e-06
2460  0.00329606   0.0213656    -2.10051  8.67344e-06
2470  0.00332495    0.021394    -2.10077  2.9093e-06
2480  0.00323787   0.0213085    -2.97789  -2.9018e-06
2490  0.00338299   0.0214509    -3.24092  -3.78028e-05
2500  0.00399393   0.0220508    -2.89053  -2.62207e-05
2510   0.0039074   0.0219659    -2.71495  -1.46695e-05
2520  0.00428732   0.0223389    -2.36448  2.84659e-06
2530  0.00385047     0.02191    -1.83792  3.78952e-05
2540  0.00352942   0.0215947    -1.92511  4.97194e-05
2550  0.00285608   0.0209336    -1.22348  6.74243e-05
2560  0.00218093   0.0202707    -1.48625  6.17328e-05
2570  0.00162142   0.0197213    -1.31093  2.07415e-05
2580   0.0017661   0.0198634    -1.57455  9.06717e-06
2590  0.00144008   0.0195433    -1.57438  3.16217e-06
2600  0.00170286   0.0198013   -0.961054  1.50208e-05
2610  0.00113966   0.0192483     -1.3994  4.45699e-05
2620  0.000811458    0.018926    -1.13612  1.51018e-05
2630  0.000837625   0.0189517    -0.60964  -2.61943e-06
2640  0.000863846   0.0189775    -0.60964  3.31128e-06
2650   0.0007714   0.0188867    -1.22374  -3.23578e-05
2660    0.001511   0.0196129    -1.39949  -4.42953e-05
2670  0.00165731   0.0197565   0.0926734  -2.06125e-05
2680  0.00192325   0.0200177   -0.784961  -2.66305e-05
2690  0.00218992   0.0202795   -0.784876  -8.05007e-05
2700  0.00353327   0.0215985   -0.872922  -6.86762e-05
2710  0.00356344   0.0216281   -0.521937  -2.69972e-05
2720  0.00407321   0.0221287    -1.39914  -5.70497e-05
2730  0.00470443   0.0227484   -0.872579  -5.71987e-05
2740  0.00521718   0.0232519    -1.31144  -5.73645e-05
2750  0.00585172   0.0238749    -1.04807  -2.13522e-05
2760  0.00564423   0.0236712   -0.873093  -3.95758e-05
2770  0.00664324   0.0246521    -0.78539  -6.37765e-05
2780  0.00691976   0.0249236   -0.960711  -1.55859e-05
2790  0.00695496   0.0249582   -0.346272  -9.58603e-06
2800  0.00711148   0.0251118   -0.258998  -3.99494e-05
2810  0.00775395   0.0257427   -0.873179  -2.17945e-05
2820  0.00754737   0.0255398   -0.346272  2.0687e-05
2830  0.00734021   0.0253364   -0.346529  -2.801e-05
2840  0.00810757   0.0260899    -0.60964  -8.29469e-05
2850  0.00899914   0.0269653   -0.346273  -5.26139e-05
2860  0.00915985   0.0271231   -0.258826  -1.60918e-05
2870  0.00932098   0.0272813     -0.6976  -3.87956e-06
2880  0.00923744   0.0271993   -0.609297  -3.90806e-06
2890  0.00939914    0.027358   -0.346015  -1.00475e-05
2900  0.00943839   0.0273966    -1.31144  -1.00842e-05
2910  0.00960082   0.0275561    -1.39897  -3.94103e-06
2920  0.00951721    0.027474   -0.784876  -3.96986e-06
2930  0.00968022    0.027634    -0.78479  1.45791e-05
2940  0.00922563   0.0271877    -1.22374  7.02815e-05
2950  0.00827459   0.0262539    -1.75013  7.04453e-05
2960  0.00781672   0.0258043    -1.75039  7.06819e-05
2970  0.00686095   0.0248659     -2.0135  3.97688e-05
2980  0.00702134   0.0250233    -1.75064  -9.83737e-06
2990   0.0070577    0.025059    -2.10154  4.62283e-05
3000  0.00609678   0.0241155    -1.75047  1.50765e-05
3010  0.00675617    0.024763    -1.92588  1.52361e-05
3020  0.00579205   0.0238163    -1.83835  2.76844e-05
3030  0.00620248   0.0242193    -2.27695  -2.22939e-05
3040  0.00623793   0.0242541    -1.92588  3.41221e-05
3050  0.00552004   0.0235493    -2.18916  4.04543e-05
3060  0.00542885   0.0234597    -2.71598  1.54291e-05
3070  0.00521146   0.0232463    -2.18967  -2.23707e-05
3080  0.00587626    0.023899    -2.01435  -4.76308e-05
3090  0.00616407   0.0241816    -1.92614  -4.77956e-05
3100  0.00683217   0.0248376    -2.36491  -3.52404e-05
3110  0.00686888   0.0248736    -2.10137  -1.00193e-05
3120  0.00703256   0.0250344     -2.1012  -5.45015e-05
3130  0.00795891   0.0259439    -2.01375  -8.00475e-05
3140  0.00863351   0.0266063    -1.57524  -2.93374e-05
3150  0.00854566     0.02652    -2.54015  4.0695e-05
3160  0.00781961   0.0258071    -2.36448  2.43443e-06
3170  0.00849697   0.0264722    -2.18916  -1.66507e-05
3180  0.00815262   0.0261341    -1.31187  4.08938e-05
3190   0.0076791   0.0256692    -1.57472  4.10053e-05
3200  0.00733251   0.0253289    -2.10154  6.68415e-05
3210  0.00634227   0.0243566    -2.01341  2.8375e-05
3220  0.00676501   0.0247717    -2.62793  -4.87827e-05
3230  0.00731792   0.0253145    -2.80334  -4.89172e-05
3240  0.00774336   0.0257323    -2.62819  -3.81968e-06
3250  0.00739431   0.0253895    -2.62811  9.06026e-06
3260  0.00756215   0.0255543    -3.06697  -1.68097e-05
3270  0.00773051   0.0257196     -2.1018  9.11346e-06
3280  0.00737988   0.0253754    -2.27695  4.81211e-05
3290  0.00676809   0.0247747    -3.06662  2.87068e-05
3300  0.00680575   0.0248117    -2.62793  4.84091e-05
3310   0.0057999    0.023824    -2.36482  6.80724e-05
3320   0.0054443   0.0234749    -2.36457  2.25303e-05
3330   0.0053493   0.0233816    -2.18899  9.5142e-06
3340  0.00525401   0.0232881    -2.45236  -1.67046e-05
3350  0.00568339   0.0237096    -2.36508  2.99939e-06
3360  0.00519403   0.0232292     -2.4527  3.58477e-05
3370  0.00496643   0.0230057    -2.54049  2.27928e-05
3380  0.00473817   0.0227816    -2.10163  -1.01469e-05
3390  0.00516937   0.0232049    -2.18933  -1.01269e-05
3400  0.00494071   0.0229804    -3.06662  -1.68285e-05
3410  0.00550594   0.0235354    -2.71607  -3.55761e-06
3420  0.00501186   0.0230503    -2.54032  3.6201e-05
3430  0.00478192   0.0228245     -2.4527  -3.68372e-05
3440   0.0057486   0.0237737    -1.66328  -1.02103e-05
3450  0.00498613    0.023025    -1.48745  6.96919e-05
3460  0.00435476   0.0224051    -1.31204  2.3138e-05
3470  0.00452337   0.0225707   -0.785818  3.66557e-05
3480  0.00362165   0.0216853   -0.785561  3.66864e-05
3490  0.00378964   0.0218502    -1.13663  -1.68246e-05
3500  0.00395814   0.0220157    -1.31255  3.01888e-05
3510  0.00318587   0.0212574    -1.48813  6.38793e-05
3520  0.00268056   0.0207612    -1.66362  2.36313e-05
3530  0.00271324   0.0207933    -1.66354  -1.67826e-05
3540  0.00301621   0.0210908    -1.57566  -4.38749e-05
3550  0.00359074   0.0216549    -1.66328  -2.36632e-05
3560  0.00348947   0.0215555    -1.48796  -3.43003e-06
3570  0.00365934   0.0217223    -1.92691  5.77525e-05
3580  0.00233442   0.0204214    -2.18959  0.000105468
3590  0.00154997   0.0196512    -2.54075  5.1295e-05
3600  0.00130852   0.0194141    -2.18985  -9.96125e-06
3610  0.00174919   0.0198468    -2.19002  3.74029e-06
3620  0.00123372   0.0193406    -1.22476  1.73778e-05
3630  0.00140164   0.0195055     -1.3123  -9.95793e-06
3640  0.00143287   0.0195362    -1.13689  3.12303e-05
3650  0.000777032   0.0188922    -1.31272  3.81578e-05
3660  0.000669719   0.0187869    -1.57566  -9.93308e-06
3670  0.000975694   0.0190873   -0.698458  3.87688e-06
3680  0.000592181   0.0187107  0.00342781  3.14957e-05
3690  0.000345779   0.0184688   -0.874036  3.85331e-05
3700  -0.000178481    0.017954   -0.522879  3.16965e-05
