Time   C(t)   
ps   
0           1           1  2.89843e-10   0.0205819
10    0.800325    0.805839   -0.778903   0.0128396
20    0.743207    0.750298   -0.118479  0.00509733
30    0.698378    0.706707     1.11057  0.00406717
40    0.661864    0.671201    0.825102  0.00349737
50    0.628431    0.638691      2.7155  0.00301179
60    0.601628    0.612629     3.75467  0.00268294
70    0.574772    0.586514     3.84693  0.00253974
80    0.550833    0.563237     1.19404  0.00242024
90    0.526367    0.539446     3.27571  0.00226175
100    0.505598    0.519251     2.32889  0.00190105
110    0.488346    0.502475     3.74653  0.00187139
120    0.468171    0.482857     2.98756  0.00186539
130    0.451038    0.466198     2.60761   0.0016378
140    0.435415    0.451005     1.94414  0.00144327
150    0.422173    0.438129     3.83713  0.00141729
160    0.407069    0.423442     2.32057  0.00146363
170      0.3929    0.409665     2.69941  0.00131172
180    0.380834    0.397932    0.425083  0.00115449
190    0.369811    0.387213    -1.18604  0.00103071
200     0.36022    0.377887    -0.52451  0.00104263
210    0.348958    0.366936    0.611543  0.000971733
220    0.340786    0.358989     1.27446  0.000822973
230    0.332499    0.350931   -0.716704  0.00100008
240    0.320784     0.33954    0.799112   0.0010117
250    0.312265    0.331256   -0.622225  0.00084793
260    0.303825     0.32305     0.89285  0.000771481
270    0.296835    0.316252     0.32376  0.000738886
280    0.289048     0.30868  -0.0565577  0.000857912
290    0.279677    0.299568   -0.245699  0.000849806
300    0.272051    0.292153    0.133417  0.000630786
310    0.267061    0.287301    0.794487  0.000519209
320    0.261667    0.282056     3.25555  0.000613716
330    0.254787    0.275365     2.78112  0.000555836
340    0.250551    0.271246     4.67448  0.000483201
350    0.245123    0.265968     4.39021  0.000459477
360    0.241361     0.26231     3.34827  0.000411128
370      0.2369    0.257973     3.53658  0.00034273
380    0.234506    0.255645     2.77752   0.0003584
390    0.229732    0.251003      4.1983  0.00040857
400    0.226335    0.247699     4.10308  0.000335102
410     0.22303    0.244486     5.04944  0.000459914
420    0.217137    0.238755     3.34439  0.000510429
430    0.212821    0.234559     3.91209  0.000436965
440    0.208397    0.230257     2.96546  0.000338277
450    0.206056     0.22798      3.5327  0.000209479
460    0.204208    0.226183     3.81641  0.000314746
470    0.199761    0.221859     3.72248  0.000420173
480    0.195804    0.218012     6.84684  0.000436089
490    0.191039    0.213378     4.85817  0.000411934
500    0.187566    0.210001     4.28963  0.000322659
510    0.184586    0.207103     2.96351  0.00024311
520    0.182704    0.205273     3.24658  0.00026377
530    0.179311    0.201974     3.05762  0.000314511
540    0.176413    0.199156     3.62468  0.000395722
550    0.171396    0.194278     3.24602  0.000436755
560    0.167678    0.190662      4.4772  0.000402453
570    0.163347    0.186451       3.814  0.00033259
580    0.161026    0.184194     4.19219  0.000298021
590    0.157387    0.180655     3.62431  0.000460491
600    0.151817    0.175239     4.19247  0.000430982
610    0.148767    0.172273     4.47609  0.00030528
620    0.145711    0.169302      4.7599  0.000305932
630    0.142648    0.166324      4.0013  0.000347228
640    0.138766    0.162549     4.19127  0.000327579
650    0.136097    0.159953     2.67518  0.000302891
660    0.132709    0.156658      3.7173  0.000328994
670    0.129517    0.153555     4.28575  0.000268468
680    0.127339    0.151437     3.24269  0.000192478
690    0.125667    0.149812     4.85289  0.00016224
700    0.124094    0.148282     4.00083  4.99666e-05
710    0.124668     0.14884     4.28473  5.5315e-05
720    0.122988    0.147206     5.61094  0.000122008
730    0.122228    0.146467     5.32741  0.000112045
740    0.120747    0.145027     3.90654  0.000168804
750    0.118852    0.143184     4.47443  0.000241208
760    0.115923    0.140336     4.66338  0.00022622
770    0.114328    0.138785     4.94765  0.000113302
780    0.113657    0.138133     3.99926  0.000175562
790    0.110816    0.135371     3.99991  0.000201675
800    0.109624    0.134211     4.75684  0.000191848
810    0.106979     0.13164     4.37847  0.000269897
820    0.104226    0.128962     4.75731  0.000322346
830    0.100532    0.125371     5.04204  0.000219161
840   0.0998424      0.1247     5.32519  0.000167826
850   0.0971759    0.122107     4.66237  0.000157675
860   0.0966889    0.121633     5.04083  8.00073e-05
870   0.0955757    0.120551     5.98728  0.000147944
880     0.09373    0.118756     6.08259  0.000127344
890   0.0930288    0.118074     4.28242  0.000138137
900   0.0909673     0.11607     3.71379  0.000227309
910   0.0884826    0.113654     5.51378  0.000180647
920   0.0873543    0.112557     5.79694   0.0002388
930   0.0837067     0.10901     5.13374  0.00022869
940   0.0827805    0.108109     5.89105  0.000129499
950   0.0811167    0.106491     4.75499  8.76583e-05
960   0.0810273    0.106404     5.60659  0.000124807
970   0.0786205    0.104064     6.64835  0.000188225
980   0.0772628    0.102744     6.93179  8.31332e-05
990   0.0769579    0.102447     4.84809   2.525e-05
1000   0.0767578    0.102253     5.03713  0.000115245
1010    0.074653    0.100206      3.5216  0.000152465
1020   0.0737085   0.0992876     3.04754  0.000131662
1030   0.0720197   0.0976454      3.5215  0.000179686
1040   0.0701148   0.0957931     2.66879  0.000164134
1050   0.0687371   0.0944533       1.532  0.000143252
1060   0.0672498   0.0930071     2.38453  0.000138243
1070   0.0659722   0.0917648     2.85757  0.000138564
1080   0.0644785   0.0903124     1.43706  0.000101499
1090   0.0639422   0.0897909     3.14174  4.83438e-05
1100   0.0635116   0.0893722     2.19418  4.84586e-05
1110   0.0629731   0.0888485     1.15224  -1.03489e-05
1120   0.0637186   0.0895735    0.773677  -2.10267e-05
1130   0.0633936   0.0892574     1.62629  3.36394e-07
1140   0.0637119   0.0895669     1.53061  0.000107854
1150   0.0612365   0.0871599    0.489502  0.000145598
1160   0.0607999   0.0867354    0.962541  7.0639e-05
1170   0.0598237   0.0857862     -1.7839  6.69621e-07
1180   0.0607865   0.0867224    -1.50102  -2.08111e-05
1190     0.06024   0.0861909    -1.02761  6.55284e-05
1200    0.059476    0.085448    -1.59568  9.27156e-05
1210   0.0583856   0.0843878   -0.553459  0.00013624
1220   0.0567512   0.0827984    0.298974  0.000109407
1230   0.0561975   0.0822601   -0.270117  0.000109719
1240   0.0545568   0.0806647   -0.932667  3.92476e-05
1250   0.0554125   0.0814968      0.9606  6.12464e-05
1260   0.0533319   0.0794736    0.582871  0.000115697
1270   0.0530986   0.0792468     1.43475  3.42587e-05
1280   0.0526467   0.0788073    0.961894  6.16267e-05
1290   0.0518661   0.0780483     1.05647  1.80176e-05
1300   0.0522863   0.0784569     2.00393  -2.5654e-05
1310   0.0523792   0.0785472     1.15187   2.358e-05
1320   0.0518147   0.0779983    0.961524  8.94181e-05
1330   0.0505908   0.0768082     1.53015  8.95875e-05
1340    0.050023   0.0762561     1.52969  3.48525e-05
1350   0.0498937   0.0761304     2.19205  5.69778e-05
1360   0.0488834    0.075148     2.76087  6.80799e-05
1370   0.0485322   0.0748064     2.85516  5.17212e-05
1380    0.047849   0.0741421     1.33962  3.52534e-05
1390   0.0478271   0.0741208     1.14956  0.000101737
1400   0.0458143   0.0721636    0.677072  9.07844e-05
1410   0.0460114   0.0723552     1.81275  1.90623e-05
1420    0.045433   0.0717928     2.94927  4.68105e-05
1430   0.0450752   0.0714449     1.14956  8.04383e-06
1440   0.0452721   0.0716364    0.108074  -3.03015e-06
1450   0.0451358   0.0715038    0.865659  2.51122e-06
1460   0.0452219   0.0715876    0.297123  3.04058e-05
1470   0.0445277   0.0709125    0.770533  0.000102998
1480    0.043162   0.0695845    0.675499  0.000119966
1490   0.0421283   0.0685794   -0.934702  7.55057e-05
1500   0.0416518   0.0681161   -0.177673  7.01169e-05
1510    0.040726   0.0672158   -0.366907  9.82987e-05
1520   0.0396859   0.0662044    -1.59799  0.000177129
1530   0.0371834    0.063771   -0.745561  0.000143733
1540   0.0368112   0.0634091   -0.366537  6.54053e-05
1550   0.0358753   0.0624991     0.10567  0.000121876
1560   0.0343737   0.0610389    0.200795  0.00011649
1570   0.0335455   0.0602336    0.200703  3.2082e-05
1580    0.033732    0.060415    0.769145  6.0495e-05
1590   0.0323356   0.0590571    0.864641  3.22353e-05
1600   0.0330873   0.0597881    0.674945  -2.99137e-05
1610   0.0329339   0.0596389     1.71707  -7.33715e-06
1620   0.0332341   0.0599308     1.24302  -1.86907e-05
1630   0.0333077   0.0600024    0.201905  -7.37235e-06
1640   0.0333815   0.0600741     2.09526  1.5392e-05
1650   0.0329999    0.059703    0.958472  -1.88131e-05
1660   0.0337578     0.06044     1.14789  -3.02082e-05
1670    0.033604   0.0602905     1.05341  2.68262e-05
1680   0.0332213   0.0599183     1.81164  3.83228e-05
1690   0.0328376   0.0595452     1.81072  8.99842e-05
1700   0.0314216   0.0581683    -1.02992  0.000101613
1710   0.0308053   0.0575691      1.0536  7.31876e-05
1720   0.0299578    0.056745   -0.556233  -1.2909e-05
1730   0.0310635   0.0578201  -0.0828245  -5.88838e-05
1740   0.0311355   0.0578901   -0.272151  5.62035e-05
1750   0.0299394   0.0567271    -1.50324  1.00899e-05
1760   0.0309337   0.0576939    -1.50342  -5.33182e-05
1770   0.0310058    0.057764    -1.21934  4.48531e-05
1780   0.0300366   0.0568216    -0.74556  2.17295e-05
1790   0.0305712   0.0573414    0.106595  -8.25231e-05
1800   0.0316871   0.0584265    0.485156  -3.62361e-05
1810   0.0312959   0.0580461     0.67402  6.82364e-05
1820   0.0303224   0.0570995     1.62112  3.34417e-05
1830   0.0306271   0.0573958     2.28413  6.85694e-05
1840    0.028951   0.0557659     2.75782  0.000109464
1850   0.0284378   0.0552669     2.75763  8.64365e-05
1860   0.0272223    0.054085     1.99995  7.49055e-05
1870   0.0269397   0.0538102     2.09499  7.51472e-05
1880   0.0257193   0.0526235     1.81072  9.87312e-05
1890   0.0249651   0.0518901     2.37907  7.55176e-05
1900    0.024209   0.0511549      1.9052  2.27975e-05
1910   0.0245091   0.0514468      2.8522  6.41199e-05
1920   0.0229266   0.0499079     2.28404  0.000105414
1930   0.0224009   0.0493967     1.33685  5.85382e-05
1940   0.0217558   0.0487695     1.81017  -4.02797e-07
1950   0.0224089   0.0494045     1.33565  -1.80687e-05
1960   0.0221172   0.0491208      1.4304  5.88208e-05
1970   0.0212325   0.0482606     2.66204  0.00010044
1980   0.0201084   0.0471675     3.70352  5.91154e-05
1990   0.0200502   0.0471109     1.52525  5.82626e-06
2000   0.0199918   0.0470542     1.24154  -2.392e-05
2010   0.0205286   0.0475761    0.957547  -8.94987e-05
2020   0.0217818   0.0487948     1.90464  -8.37128e-05
2030   0.0222028   0.0492041     1.62028  -6.30459e-06
2040   0.0219079   0.0489174     2.75661  1.75642e-05
2050   0.0218516   0.0488626     2.28283  -3.02951e-05
2060   0.0225138   0.0495065     2.56655  -9.02983e-05
2070   0.0236575   0.0506187     1.99884  -0.000102505
2080   0.0245639      0.0515     1.43049  -5.46803e-05
2090   0.0247511   0.0516821     1.61954  -7.89445e-05
2100   0.0261428   0.0530353     2.18724  -9.71515e-05
2110   0.0266942   0.0535714     2.09323  -5.52041e-05
2120   0.0272469   0.0541089     2.09304  -8.55592e-05
2130   0.0284053   0.0552354     2.09295  -0.000140194
2140   0.0300508   0.0568354     2.09267  -0.000116285
2150    0.030731   0.0574968     3.13508  -8.02485e-05
2160   0.0316557    0.058396     2.56645  -7.55396e-06
2170   0.0308821   0.0576438     3.70251  -1.59796e-06
2180   0.0316877   0.0584271     1.52451  3.50374e-05
2190   0.0301814   0.0569624    0.862051  0.000108145
2200   0.0295248   0.0563239     1.43003  3.52141e-05
2210   0.0294771   0.0562775     1.52506  4.77945e-06
2220   0.0294292    0.056231     2.66121  -1.32713e-06
2230   0.0295036   0.0563033      3.1349  -4.42228e-05
2240   0.0303137    0.057091     3.22919  -1.33431e-06
2250   0.0295303   0.0563293     3.60784  6.00025e-05
2260   0.0291136   0.0559241     3.70278  4.81047e-06
2270   0.0294341   0.0562357     4.46028  7.87965e-05
2280   0.0275377   0.0543917      3.7026  4.18453e-05
2290   0.0285972   0.0554219     2.75495  -3.8148e-05
2300   0.0283007   0.0551336     2.28163  4.95715e-06
2310   0.0284981   0.0553255     3.32358  1.1196e-05
2320   0.0280767   0.0549158     2.94474  -7.41752e-06
2330   0.0286464   0.0554698     2.09193  -1.9791e-05
2340   0.0284726   0.0553007     2.47087  4.97699e-06
2350   0.0285469    0.055373     2.75458  -1.2177e-06
2360   0.0284969   0.0553244     1.71291  1.12358e-05
2370   0.0283222   0.0551545     1.23922  2.37397e-05
2380   0.0280221   0.0548627     1.99727  4.87917e-05
2390   0.0273463   0.0542056     1.99718  5.51523e-05
2400   0.0269191   0.0537901     2.65982  5.53144e-05
2410     0.02624   0.0531299     1.71254  4.28959e-05
2420   0.0260612   0.0529559     1.99699  4.93238e-05
2430   0.0252536   0.0521706     2.18604   2.425e-05
2440   0.0255762   0.0524843     3.03838  -8.06432e-07
2450   0.0252697   0.0521863     2.18614  6.22229e-05
2460   0.0243317   0.0512742     1.71263  4.33997e-05
2470   0.0244017   0.0513423     1.99653  -7.01165e-06
2480   0.0244719   0.0514106     1.90131  4.36299e-05
2490   0.0235291   0.0504938     2.46976  4.36796e-05
2500   0.0235983   0.0505611     1.04851  -5.83474e-07
2510   0.0235408   0.0505051    0.196171  -1.96677e-05
2520   0.0239917   0.0509436    0.291296  -1.33202e-05
2530   0.0238072   0.0507642      1.0487  5.72745e-06
2540   0.0238771   0.0508322    0.480809  5.68297e-05
2550   0.0226706    0.049659    0.291482  8.24645e-05
2560   0.0222278   0.0492285    0.575842   2.513e-05
2570    0.022168   0.0491702     1.52275  3.80438e-05
2580    0.021467   0.0484886     2.18604  4.45207e-05
2590   0.0212776   0.0483044     3.13277  -5.17267e-05
2600   0.0225015   0.0494946     2.37454  -1.95923e-05
2610   0.0216694   0.0486855     1.80684  -4.52436e-07
2620   0.0225106   0.0495034    0.954033  -3.41143e-07
2630   0.0216762   0.0486921     1.80656  3.18527e-05
2640   0.0218735   0.0488839    0.953385  4.49521e-05
2650   0.0207772   0.0478179  0.00675182  6.4424e-05
2660    0.020585    0.047631   -0.561228  -1.31967e-05
2670   0.0210411   0.0480745    0.385313  6.30179e-06
2680    0.020459   0.0475084     1.23728  0.000123355
2690    0.018574   0.0456755    0.764058  9.10298e-05
2700   0.0186384   0.0457381     1.23774  -6.44354e-06
2710   0.0187029   0.0458009      1.3325  9.80625e-05
2720   0.0166771    0.043831     0.66995  0.00014398
2730   0.0158233   0.0430008    0.953848  9.86029e-05
2740   0.0147051   0.0419134     1.04842  0.000125096
2750   0.0133214    0.040568    0.953385  5.31651e-05
2760   0.0136418   0.0408795  0.00628913  -5.77057e-06
2770   0.0134368   0.0406802    0.290464  9.95697e-05
2780   0.0116504   0.0389431     1.42679  9.97359e-05
2790   0.0114421   0.0387405    0.952923  5.38859e-05
2800   0.0105727   0.0378951     1.23691  0.000126749
2810   0.0089071   0.0362756     1.23728  0.000100551
2820  0.00856164   0.0359396     1.14225  3.45945e-05
2830  0.00821521   0.0356028    0.479144  6.79021e-05
2840   0.0072036   0.0346191    0.763411  2.81368e-05
2850  0.00765247   0.0350556     1.04722  -1.16469e-05
2860  0.00743654   0.0348456     1.42605  -5.84179e-05
2870  0.00882083   0.0361917     1.89928  -6.51491e-05
2880  0.00873952   0.0361126     2.18345  3.4899e-05
2890  0.00812285    0.035513     2.46791  1.48646e-05
2900  0.00844223   0.0358235     1.70995  1.49723e-05
2910  0.00782341   0.0352218     1.14132  4.85346e-05
2920  0.00747154   0.0348796     1.89937  9.57779e-05
2930  0.00590785   0.0333591     1.70977  0.000136381
2940  0.00474391   0.0322273    0.952737  0.000116558
2950  0.00357668   0.0310923    0.668008  6.28455e-05
2960    0.003487   0.0310051    0.857334  5.63374e-05
2970  0.00244994   0.0299967      1.4255  3.61076e-05
2980  0.00276485   0.0303029     2.18308  4.30899e-05
2990  0.00158814   0.0291587     1.70977  2.95171e-05
3000  0.00217451   0.0297289     2.18281  1.61212e-05
3010  0.00126571   0.0288452     2.46698  5.69416e-05
3020  0.00103568   0.0286215     2.84582  1.6214e-05
3030  0.000941433   0.0285299     3.22493  -2.47283e-05
3040  0.00153024   0.0291024     2.94058  -6.5808e-05
3050  0.00225759   0.0298097     2.75088  -3.85761e-05
3060  0.00230177   0.0298526     2.56155  9.30129e-06
3070  0.00207157   0.0296288     2.75097  3.67985e-05
3080   0.0015658    0.029137     2.18271  5.06508e-05
3090  0.00105855   0.0286437     1.89909  1.63349e-05
3100   0.0012391   0.0288193       1.899  -5.94954e-05
3110  0.00224846   0.0298008     1.80397  -4.30767e-06
3120  0.00132525   0.0289031      2.3726  2.4608e-06
3130  0.00219924   0.0297529     1.42541  -8.75248e-05
3140  0.00307575   0.0306052     0.95172  -3.22376e-05
3150    0.002844   0.0303799    0.951998  -4.6018e-06
3160  0.00316779   0.0306947    0.951905  -5.33154e-05
3170   0.0039103   0.0314167    0.572789  -5.34419e-05
3180  0.00423662   0.0317341     0.57316  -3.26795e-05
3190  0.00456389   0.0320523    0.857242  9.18847e-06
3200  0.00405285   0.0315554     1.42596  1.61587e-05
3210  0.00424072    0.031738     1.04703  9.24229e-06
3220  0.00386801   0.0313756     0.38411  4.43522e-05
3230  0.00335367   0.0308755    0.763041  5.8544e-05
3240  0.00269713   0.0302371    0.573622  1.64327e-05
3250  0.00302502   0.0305559     1.99413  2.36113e-05
3260   0.0022249   0.0297779     1.52081  3.06638e-05
3270  0.00241175   0.0299596     1.71004  -3.28658e-05
3280  0.00288222    0.030417    0.952737  -1.16796e-05
3290  0.00264534   0.0301867    0.857334  2.37239e-05
3300  0.00240774   0.0299557    0.762856   9.578e-06
3310  0.00245378   0.0300004     1.14197  -4.61186e-06
3320  0.00249998   0.0300454    0.952461  2.38947e-05
3330  0.00197588   0.0295357    0.289355  -4.63924e-06
3340  0.00259276   0.0301356    0.194691  -1.17196e-05
3350  0.00221027   0.0297637    0.289539  2.49441e-06
3360  0.00254287   0.0300871    0.479236  -1.89622e-05
3370  0.00258952   0.0301324     0.10012  2.51023e-06
3380  0.00249267   0.0300383    0.289262  -1.18839e-05
3390   0.0028272   0.0303635   -0.468414  1.69373e-05
3400  0.00215392   0.0297089    0.384388  4.57791e-05
3410  0.00191161   0.0294732    0.573715  9.81169e-06
3420  0.00195769   0.0295181    0.478496  2.62497e-06
3430  0.00185912   0.0294222   -0.373844  9.87261e-06
3440  0.00176024   0.0293261     0.28917  3.16847e-05
3450  0.00122542    0.028806   0.0997504  -4.61119e-06
3460  0.00185246   0.0294157    0.857427  -4.82349e-05
3470  0.00219012   0.0297441    0.857057  -2.65229e-05
3480  0.00238292   0.0299315     1.04666  2.60619e-06
3490    0.002138   0.0296934     1.23599  1.72147e-05
3500  0.00203862   0.0295968     2.27765  3.92629e-05
3510  0.00135274   0.0289298      1.2358  9.98074e-06
3520  0.00183901   0.0294026     1.33028  6.89072e-05
3530  -2.54058e-05   0.0275897    0.951628  0.000127835
3540  -0.000717686   0.0269166     1.14086  1.03479e-05
3550  -0.000232365   0.0273885     1.42494  -2.64532e-05
3560  -0.000188621    0.027431     1.33028  -1.91734e-05
3570  0.000151104   0.0277614     1.23571  -4.1433e-05
3580  0.000640038   0.0282368     1.04583  -4.15505e-05
3590  0.000982114   0.0285694     1.51952  2.51867e-05
3600  0.000136304    0.027747     2.18197  4.74999e-05
3610  3.2116e-05   0.0276457     1.99292  2.98192e-06
3620  7.66657e-05    0.027689     1.80314  1.04692e-05
3630  -0.000177268    0.027442     1.80314  -2.69107e-05
3640  0.000614879   0.0282123     1.80304  -2.6913e-05
3650  0.000360991   0.0279654     1.89789  1.79276e-05
3660  0.000256328   0.0278637    0.761191  1.79959e-05
3670  1.0727e-06   0.0276155      1.4243  4.06166e-05
3680  -0.000556003   0.0270738    0.571495  5.57949e-05
3690  -0.00111483   0.0265304    0.477016  5.59716e-05
3700  -0.00167544   0.0259853    0.950333  1.07843e-05
