Time   C(t)   
ps   
0           1           1  2.11103e-10   0.0202642
10    0.800006    0.814688   -0.126906   0.0111594
20    0.776812    0.793198   0.0528986  0.00205457
30    0.758914    0.776614  -0.0764743  0.00163564
40      0.7441    0.762887   -0.026418  0.00151686
50    0.728577    0.748504   0.0258923  0.00131601
60     0.71778    0.738499    0.844823  0.00110658
70    0.706445    0.727997     0.71525   0.0010638
80    0.696504    0.718785     1.40734  0.000988385
90    0.686678     0.70968    0.278027  0.000984892
100    0.676806    0.700533     1.40591  0.000985515
110    0.666967    0.691417    0.637186  0.000923234
120    0.658341    0.683424    0.712671  0.000864929
130    0.649669    0.675389     0.84024  0.000895455
140    0.640432     0.66683    0.711969  0.000702438
150     0.63562    0.662371     1.81277  0.000748023
160    0.625471    0.652968   0.0444097  0.000941724
170    0.616786     0.64492    0.351834  0.000781375
180    0.609844    0.638488     1.12051  0.000683874
190    0.603108    0.632246    0.504783  0.000646642
200    0.596911    0.626504     1.63191  0.000748765
210    0.588133     0.61837     1.94037  0.000704622
220    0.582819    0.613446      2.3237  0.000624582
230    0.575641    0.606796    0.734017  0.000659031
240    0.569638    0.601233     3.65587  0.000520465
250    0.565232    0.597151     3.01391  0.000504926
260    0.559539    0.591876     3.47564  0.000571209
270    0.553808    0.586565     3.83269  0.000630757
280    0.546924    0.580187     3.73113  0.00059441
290    0.541919     0.57555     3.39664  0.000584576
300    0.535233    0.569354     3.31901  0.000622004
310    0.529479    0.564023     4.03645  0.00065127
320    0.522207    0.557285      3.7291  0.000599369
330    0.517492    0.552916     3.49731  0.000497255
340    0.512262     0.54807     2.95837  0.00053747
350    0.506743    0.542955      4.2143  0.000538558
360    0.501491     0.53809     4.67497  0.000559349
370    0.495556     0.53259     4.57236  0.000504246
380    0.491406    0.528745     4.82812  0.000480115
390    0.485953    0.523692     5.05916  0.000547265
400    0.480461    0.518603         4.7  0.00053989
410    0.475155    0.513687     5.26314  0.000493069
420      0.4706    0.509466     5.95528  0.000509681
430    0.464962    0.504242     6.03181  0.000472502
440     0.46115     0.50071     5.77487  0.000415576
450     0.45665    0.496541     6.03099  0.000450425
460    0.452141    0.492363     6.41465  0.000512372
470    0.446403    0.487046     5.59437  0.000477874
480    0.442584    0.483507     5.54198  0.000403655
490     0.43833    0.479565     5.18272  0.000394528
500    0.434693    0.476196     5.61804  0.000352687
510    0.431276    0.473029     6.48903  0.000367713
520    0.427339    0.469381     5.66792  0.000431217
530    0.422652    0.465038     7.02702  0.000433515
540    0.418668    0.461347     5.43648  0.000387305
550    0.414906    0.457861     5.48767  0.000466862
560    0.409331    0.452696     5.92381  0.00043335
570    0.406239     0.44983     5.48739  0.000420035
580     0.40093    0.444912     5.30756  0.000409356
590    0.398052    0.442244     5.07645  0.00039167
600    0.393097    0.437653     5.94844  0.000395274
610    0.390146    0.434919     6.17833  0.000350116
620    0.386095    0.431165     4.46007  0.000376768
630    0.382611    0.427937     5.28051  0.000366072
640    0.378773    0.424381     5.04897  0.00037259
650    0.375159    0.421032      5.2534  0.000306843
660    0.372636    0.418695     4.91952  0.000394443
670     0.36727    0.413722     5.40687  0.000470577
680    0.363225    0.409974     5.20164  0.000277179
690    0.361726    0.408586     5.32861  0.000292368
700    0.357378    0.404556     4.97008  0.000345244
710    0.354822    0.402188     5.32918  0.000229634
720    0.352785    0.400301     4.78912  0.000343829
730    0.347945    0.395816     4.48195  0.000367783
740    0.345429    0.393485     3.86622  0.000324856
750    0.341448    0.389796     4.73841  0.000369328
760    0.338043    0.386641     5.37869  0.000323354
770    0.334981    0.383804     5.19871  0.000318214
780    0.331678    0.380744      5.1219  0.00034233
790    0.328134     0.37746     5.09569  0.000322503
800    0.325228    0.374767     5.40282  0.000311488
810    0.321904    0.371687     4.42811  0.000343078
820    0.318367    0.368409     6.27436  0.000295195
830       0.316    0.366217     5.58147  0.000323915
840    0.311888    0.362407     5.53031  0.000283159
850    0.310337    0.360969     5.99131  0.000297232
860    0.305944    0.356899     4.99167  0.000365831
870    0.303021     0.35419     5.65768  0.00026444
880    0.300655    0.351998     4.91389  0.000284342
890    0.297334    0.348921     5.37559  0.000317596
900    0.294303    0.346112     5.40134  0.00027965
910    0.291741    0.343738     5.11849  0.000287749
920    0.288548     0.34078     5.01578  0.000216833
930    0.287404     0.33972     4.37412  0.000256209
940    0.283424    0.336032     4.91276  0.000286466
950    0.281675    0.334411     3.45049  0.000213979
960    0.279144    0.332067     3.29639  0.000215925
970    0.277356     0.33041     4.45018  0.00018346
980    0.275475    0.328667     3.65513  0.00020187
990    0.273319    0.326669     3.39844  0.00026239
1000    0.270227    0.323804     3.39826  0.000240351
1010    0.268512    0.322215     3.55239  0.000180767
1020    0.266612    0.320454     3.42351  0.000257993
1030    0.263352    0.317434       2.424  0.000253974
1040    0.261532    0.315748      3.3717  0.000213857
1050    0.259075    0.313471     3.37185  0.000197656
1060    0.257579    0.312085     3.70406  0.000220868
1070    0.254658    0.309378     3.29384  0.000194012
1080    0.253699    0.308489     3.75537  0.000202125
1090    0.250615    0.305632     2.78093  0.000275359
1100    0.248192    0.303387     3.11404  0.000196958
1110    0.246676    0.301982     2.96011  0.000180723
1120    0.244577    0.300037     3.88273  0.000213107
1130    0.242414    0.298033      3.2162  0.000224254
1140    0.240092    0.295882     3.83145  0.000223222
1150    0.237949    0.293896     4.49788  0.000191623
1160     0.23626    0.292331     3.93379  0.000185964
1170     0.23423     0.29045      3.1901  0.000187902
1180    0.232502    0.288848      3.0871  0.000163806
1190    0.230954    0.287414      3.5228  0.000210247
1200    0.228297    0.284952     3.31719  0.000226035
1210    0.226433    0.283225     2.70141  0.000243543
1220    0.223426    0.280439     2.88129  0.000171619
1230    0.223001    0.280045     2.77828  0.000173696
1240    0.219952     0.27722     2.93235  0.000283588
1250    0.217329     0.27479     2.39396  0.000205397
1260    0.215844    0.273414     2.52174  0.000178077
1270    0.213768    0.271489     2.67538  0.000167613
1280    0.212492    0.270308     2.70079  0.000180433
1290    0.210159    0.268146     2.29065  0.000163712
1300    0.209218    0.267274     1.49517  0.000182841
1310    0.206502    0.264757     1.03349  0.000282786
1320    0.203562    0.262033      1.8796  0.000228883
1330    0.201924    0.260516     1.46919  0.000207626
1340    0.199409    0.258186     2.05856  0.000211187
1350    0.197701    0.256602     1.00726  0.000135097
1360    0.196708    0.255682     2.51958  0.000174589
1370    0.194209    0.253367     1.36542  0.000195282
1380    0.192802    0.252063     1.41648  0.000197364
1390    0.190262    0.249709    0.724515  0.000145911
1400    0.189884    0.249359    0.185702  8.34599e-05
1410    0.188592    0.248163    0.108288  0.000124556
1420    0.187393    0.247051  -0.0717166  0.000195792
1430    0.184677    0.244534    0.441092  0.000207204
1440    0.183248    0.243211     0.54416  8.29339e-05
1450    0.183018    0.242997     0.62002  0.000159136
1460    0.180066    0.240262     1.18509  0.000172019
1470    0.179578     0.23981    0.979479  6.94863e-05
1480    0.178676    0.238974     1.03026  0.000153771
1490    0.176502     0.23696    0.184625  0.000177908
1500    0.175118    0.235677   -0.098022  0.00016564
1510    0.173189     0.23389     0.61967  0.000180338
1520    0.171511    0.232335    0.440441  9.94146e-05
1530    0.171201    0.232048     0.41391  0.000149244
1540    0.168526     0.22957     1.51714  0.000187839
1550    0.167444    0.228567    0.773043  8.27171e-05
1560    0.166872    0.228037    0.900488  0.000123017
1570    0.164984    0.226287     1.64406  0.000198654
1580    0.162899    0.224355     1.18314  0.000117174
1590     0.16264    0.224116      1.8743  0.000167424
1600     0.15955    0.221253     1.84947  0.000164431
1610    0.159352    0.221069     1.38674  0.000124688
1620    0.157057    0.218942     1.25905  0.000111954
1630    0.157113    0.218994     2.18152  4.93176e-05
1640     0.15607    0.218028     2.18132  0.000165876
1650    0.153795     0.21592     1.54021  0.000158107
1660    0.152908    0.215098     1.36064  0.000124505
1670    0.151305    0.213613     1.28345  0.000181607
1680    0.149276    0.211733     1.71954  0.000170643
1690    0.147892     0.21045     1.05261  0.000132011
1700    0.146636    0.209286     1.48851  7.52881e-05
1710    0.146386    0.209055    0.565056  7.22684e-05
1720     0.14519    0.207947     1.10309  0.000126302
1730     0.14386    0.206715     1.61625  0.000118422
1740    0.142822    0.205752     1.77005  8.10653e-05
1750    0.142239    0.205212     1.87237  8.78483e-05
1760    0.141065    0.204124      1.4616  0.000189809
1770    0.138443    0.201695     1.61623  0.000131006
1780    0.138445    0.201697     1.74377  6.40124e-05
1790    0.137163    0.200509     1.84634  7.89106e-05
1800    0.136867    0.200234     1.82011  0.000105559
1810    0.135052    0.198552     1.53816  0.000105736
1820    0.134752    0.198275     1.64068  7.63126e-05
1830    0.133525    0.197138       1.333  0.000137715
1840    0.131998    0.195723    0.614737  0.000123113
1850    0.131063    0.194857    0.819694  0.000103533
1860    0.129927    0.193804     1.69116  0.000138677
1870    0.128289    0.192287     1.56309  0.000147308
1880    0.126981    0.191074     1.35801  0.000102705
1890    0.126235    0.190384      1.0242  9.13136e-05
1900    0.125154    0.189382    0.972768  0.000119914
1910    0.123837    0.188161     1.58827  8.67527e-05
1920    0.123419    0.187774     1.15232  4.51583e-05
1930    0.122934    0.187324       0.408  0.000113998
1940    0.121139    0.185662   -0.130311  0.000122603
1950    0.120482    0.185052   -0.386878  8.93641e-05
1960    0.119352    0.184006   0.0235383  9.7964e-05
1970    0.118523    0.183237  -0.0794794  9.31766e-05
1980    0.117489    0.182279   -0.412958  0.000125454
1990    0.116014    0.180912   -0.284637  7.50657e-05
2000    0.115987    0.180888   -0.105534  8.54854e-05
2010    0.114304    0.179328   -0.130863  0.000141482
2020    0.113158    0.178266   -0.130988  8.42229e-05
2030    0.112619    0.177767    0.227445  7.76757e-05
2040    0.111604    0.176827    0.355641  9.14454e-05
2050     0.11079    0.176073     1.04745  0.000154659
2060    0.108511     0.17396     0.66324  9.70159e-05
2070     0.10885    0.174275    0.739626  4.28308e-05
2080    0.107654    0.173167    0.559923  0.000155595
2090    0.105738    0.171391    0.662113  0.000126863
2100    0.105117    0.170816     0.76478  9.30093e-05
2110    0.103878    0.169668    0.636534  0.000120651
2120    0.102704     0.16858    0.995418  6.08664e-05
2130    0.102661     0.16854     1.14857  7.31207e-05
2140    0.101242    0.167225     0.71252  0.000116257
2150    0.100336    0.166385    0.968862  0.000114857
2160   0.0989446    0.165096     1.02032  8.06108e-05
2170   0.0987234    0.164891     1.02004  3.76899e-05
2180   0.0981908    0.164398     0.71222  7.41027e-05
2190   0.0972413    0.163518     0.68629  8.81262e-05
2200   0.0964282    0.162765    0.788857  4.84634e-05
2210    0.096272     0.16262    0.814036  9.37905e-05
2220   0.0945524    0.161027    0.404094  0.00014088
2230   0.0934544    0.160009    0.916577  0.000106457
2240   0.0924233    0.159054    0.326831  2.65397e-05
2250   0.0929236    0.159517    0.429172  5.6392e-05
2260   0.0912954    0.158009    0.121147  8.61101e-05
2270   0.0912014    0.157922    0.197609  3.56622e-05
2280   0.0905822    0.157348    0.582196  8.30427e-05
2290   0.0895406    0.156383      0.1462  0.000113073
2300   0.0883207    0.155252    0.120421  0.000109842
2310   0.0873437    0.154347   -0.700162  8.90255e-05
2320   0.0865402    0.153603     -0.1617  8.92676e-05
2330   0.0855584    0.152693   -0.802604  8.94889e-05
2340   0.0847505    0.151944   -0.597671  0.000119769
2350    0.083163    0.150473   0.0176285  0.000100575
2360    0.082739     0.15008   -0.290171  3.53824e-05
2370   0.0824554    0.149818     0.40194  6.2092e-05
2380   0.0814971     0.14893  -0.00825111  7.10841e-05
2390   0.0810337      0.1485    0.427069   5.708e-05
2400   0.0803555    0.147872    0.376036  7.32441e-05
2410   0.0795688    0.147143    0.119094  0.000125122
2420   0.0778531    0.145553    0.324527  0.000100401
2430   0.0775608    0.145282    0.221935  4.17814e-05
2440   0.0770174    0.144779   0.0423817  7.2296e-05
2450   0.0761148    0.143943   -0.752723  8.50093e-05
2460   0.0753173    0.143204   -0.470653  9.60141e-05
2470   0.0741946    0.142163    0.119244  0.000107021
2480   0.0731768     0.14122   -0.188631  8.39237e-05
2490   0.0725161    0.140608    0.375185  7.33677e-05
2500   0.0717095    0.139861   -0.163177  6.09197e-05
2510   0.0712977    0.139479   -0.650507  7.19517e-05
2520   0.0702705    0.138527   -0.932678  5.03972e-05
2530   0.0702898    0.138545   -0.035758  3.79201e-05
2540   0.0695121    0.137825   -0.420145  3.61543e-05
2550   0.0695667    0.137875   -0.189758  8.5339e-05
2560   0.0678053    0.136243   0.0156756  0.000100001
2570   0.0675667    0.136022   -0.112746  3.66431e-05
2580   0.0670724    0.135564   -0.523538  7.86644e-05
2590   0.0659934    0.134564   -0.292826  7.51786e-05
2600   0.0655688    0.134171   -0.549268  7.35968e-05
2610   0.0645214      0.1332    -1.01082  0.000130518
2620   0.0629585    0.131752    -1.08778  0.000106999
2630   0.0623815    0.131218   -0.677338  3.39212e-05
2640   0.0622801    0.131124   -0.857193  5.79493e-05
2650   0.0612225    0.130144    -0.49841  0.000115112
2660   0.0599778     0.12899   -0.600701  6.19519e-05
2670   0.0599834    0.128996   -0.780681  7.51197e-05
2680   0.0584754    0.127598   -0.729197  0.000162102
2690   0.0567414    0.125992   -0.703343  0.000116261
2700   0.0561502    0.125444    -0.93418  6.2906e-05
2710   0.0554833    0.124826    -1.16507  8.53466e-05
2720   0.0544433    0.123862   -0.857468  0.000100423
2730   0.0534748    0.122965    -1.24206  9.88413e-05
2740   0.0524664     0.12203    -1.19095  4.50665e-05
2750   0.0525735     0.12213    -1.44746  1.1671e-05
2760    0.052233    0.121814    -1.19137  3.03604e-05
2770   0.0519663    0.121567   -0.678665  6.60095e-05
2780   0.0509128    0.120591   -0.858345  7.17623e-05
2790    0.050531    0.120237   -0.730124  5.69936e-05
2800    0.049773    0.119535   -0.602003  5.14848e-05
2810   0.0495013    0.119283   -0.627757  2.15536e-05
2820   0.0493419    0.119135   -0.525492  4.23523e-05
2830   0.0486543    0.118498   -0.602304  7.26288e-05
2840   0.0478893    0.117789   -0.627932   5.771e-05
2850   0.0475001    0.117429   -0.833367  6.16813e-05
2860   0.0466557    0.116646     -1.5002  7.69813e-05
2870   0.0459605    0.116002   -0.859221  8.66996e-05
2880   0.0449217     0.11504    -1.34612  1.85005e-05
2890   0.0455905    0.115659      -1.193  1.48691e-05
2900   0.0446243    0.114764   -0.962239  0.00010818
2910   0.0434269    0.113654    -1.39781  2.63996e-05
2920   0.0440963    0.114275    -1.14217  2.46968e-05
2930   0.0429329    0.113197   -0.834218  8.58849e-05
2940   0.0423786    0.112683   -0.732027  4.5922e-05
2950   0.0420145    0.112346    -0.65514  3.26252e-05
2960   0.0417261    0.112079   -0.732427  7.69364e-05
2970   0.0404758     0.11092    -1.03985  6.74665e-05
2980   0.0403768    0.110828   -0.757806  6.38826e-05
2990   0.0391981    0.109736    -1.27079  9.87299e-05
3000   0.0384022    0.108999    -1.39919  0.000116443
3010   0.0368693    0.107578   -0.962965  7.41336e-05
3020   0.0369195    0.107625   -0.732427   6.864e-05
3030   0.0354965    0.106306   -0.834769  9.20342e-05
3040   0.0350788    0.105919    -1.04033  4.37642e-05
3050   0.0346212    0.105495    -1.75807  5.94618e-05
3060   0.0338896    0.104817    -1.52776  9.08118e-05
3070   0.0328049    0.103812    -1.47615  0.000108621
3080   0.0317172    0.102804    -1.60424  2.87618e-05
3090   0.0322297    0.103279    -1.34828  5.46258e-06
3100   0.0316079    0.102703    -2.01514  9.56081e-05
3110   0.0303175    0.101508    -1.37413  4.67386e-05
3120   0.0306731    0.101837    -1.68233  3.91263e-05
3130    0.029535    0.100783    -1.93868  0.000112012
3140   0.0284329   0.0997613    -1.73339  0.000112343
3150   0.0272881   0.0987006    -2.06667  7.51315e-05
3160   0.0269303    0.098369    -1.88729  5.95815e-05
3170   0.0260965   0.0975965    -2.37462  2.60413e-05
3180   0.0264095   0.0978864    -2.09305  4.20736e-05
3190    0.025255   0.0968168    -1.81078  9.57428e-05
3200   0.0244946   0.0961121    -1.50308  8.41168e-05
3210   0.0235727   0.0952579    -1.68268  4.05028e-05
3220   0.0236845   0.0953616    -1.91345  3.87017e-05
3230   0.0227987   0.0945407    -1.78523  6.27304e-05
3240   0.0224299   0.0941991    -2.09323  6.89601e-05
3250   0.0214195   0.0932628    -1.88789  7.71401e-05
3260   0.0208871   0.0927695    -1.55456  4.32714e-05
3270    0.020554   0.0924609    -1.83683  5.54755e-05
3280   0.0197776   0.0917415    -1.81103  7.9775e-05
3290   0.0189585   0.0909825    -1.88792  1.34581e-05
3300   0.0195085   0.0914921    -1.78583  -1.06373e-05
3310   0.0191713   0.0911797    -1.86286  5.80372e-05
3320   0.0183477   0.0904165    -1.50381  7.84347e-05
3330   0.0176026   0.0897261    -1.50386  8.88228e-05
3340   0.0165713   0.0887705     -1.2987  8.2971e-05
3350   0.0159432   0.0881885    -1.70904  8.12168e-05
3360   0.0149469   0.0872654     -1.1446  5.69786e-05
3370   0.0148036   0.0871326    -1.50368  4.70084e-05
3380   0.0140068   0.0863943    -1.06773  4.91437e-05
3390   0.0138207   0.0862219    -1.29887  3.29625e-05
3400   0.0133475   0.0857834   -0.555202  5.14936e-05
3410   0.0127909   0.0852676    -1.09364  5.78021e-05
3420   0.0121915   0.0847123   -0.837398  5.59209e-05
3430   0.0116724   0.0842313   -0.965644  4.99196e-05
3440   0.0111931   0.0837872   -0.940065  7.68904e-05
3450   0.0101346   0.0828064    -1.01685  8.94804e-05
3460  0.00940347   0.0821289   -0.683724  6.70162e-05
3470  0.00879431   0.0815645    -1.17103  2.57804e-05
3480  0.00888786   0.0816512    -1.27379  2.17655e-05
3490    0.008359   0.0811612   -0.632891  6.1279e-05
3500  0.00766228   0.0805156   -0.786665  5.10461e-05
3510  0.00733808   0.0802152   -0.709728  7.20872e-05
3520  0.00622054   0.0791797   -0.555803  7.64224e-05
3530  0.00580963   0.0787989   -0.863528  1.81479e-05
3540  0.00585758   0.0788434   -0.863628  2.24289e-05
3550  0.00536105   0.0783833   -0.966346  0.000100088
3560  0.00385581   0.0769886   -0.196795  9.19189e-05
3570  0.00352267   0.0766799   -0.145837  2.2839e-05
3580  0.00339903   0.0765653   -0.248604  5.2438e-05
3590  0.00247391   0.0757081   -0.427833  7.57647e-05
3600  0.00188374   0.0751613   -0.761187  2.31606e-05
3610   0.0020107   0.0752789  -0.0946538  5.92949e-05
3620  0.000697838   0.0740624   -0.556104  9.33091e-05
3630  0.000144519   0.0735497   -0.350921  6.60416e-05
3640  -0.000622994   0.0728386   -0.222624  2.58029e-05
3650  -0.000371538   0.0730716    0.264329  4.51469e-05
3660  -0.00152593   0.0720019    0.161788  7.50619e-05
3670  -0.00187278   0.0716806    0.187467  2.40512e-05
3680  -0.00200695   0.0715562   0.0332667  5.19841e-05
3690  -0.00291246   0.0707172   -0.299862  6.28116e-05
3700  -0.00326319   0.0703922   -0.145912  2.65342e-05
3710  -0.00344314   0.0702255   -0.223075  5.24505e-05
