Time   C(t)   
ps   
0           1           1  1.0152e-09    0.032807
10     0.67574    0.837726   -0.282551   0.0179464
20    0.641071    0.820377  -0.0818298  0.00308583
30    0.614023    0.806841   -0.800309  0.00236671
40    0.593737    0.796689   -0.261472   0.0018171
50    0.577681    0.788654    0.207967  0.00159836
60     0.56177    0.780691    0.297525  0.00152651
70    0.547151    0.773375   -0.196676  0.00131107
80    0.535549    0.767569   -0.713536  0.00111725
90    0.524806    0.762193    -1.14132  0.00120358
100    0.511477    0.755522     -1.7473  0.00103754
110    0.504055    0.751808   -0.692478  0.000966811
120    0.492141    0.745846      -1.545  0.000877552
130    0.486504    0.743025   0.0474319  0.000599694
140    0.480147    0.739843   -0.424199  0.000736502
150    0.471774    0.735653   -0.132977  0.000858155
160    0.462984    0.731254     1.28086  0.000674938
170    0.458276    0.728898    0.943273  0.000591737
180    0.451149    0.725332    0.561989  0.000818357
190    0.441908    0.720707   -0.806843  0.000806518
200    0.435019    0.717259   -0.627726  0.000512944
210     0.43165    0.715573    0.111613   0.0005209
220    0.424601    0.712046    0.606428  0.000564325
230    0.420363    0.709925    0.269145  0.00046017
240    0.415397     0.70744    -1.34732  0.000582436
250    0.408714    0.704095    0.426128  0.000585757
260    0.403682    0.701577   -0.315272  0.000476702
270     0.39918    0.699324   -0.921426  0.000594918
280    0.391784    0.695623   -0.337688  0.00043586
290    0.390463    0.694962   0.0423018  0.000256394
300    0.386656    0.693056   -0.115033  0.000485115
310    0.380761    0.690106   -0.114529  0.000519936
320    0.376257    0.687852   -0.406299  0.000425933
330    0.372242    0.685843   -0.137515  0.000442733
340    0.367403    0.683421    0.648149  0.000375493
350    0.364732    0.682085      0.2659  0.000283235
360    0.361738    0.680586     0.53545  0.000279281
370    0.359147     0.67929     1.00605  0.000222926
380    0.357279    0.678355    0.960713  0.00044452
390    0.350256     0.67484   -0.453259  0.000559324
400    0.346093    0.672757    0.579363  0.000396156
410    0.342333    0.670875   0.0400216  0.000392394
420    0.338245     0.66883  -0.0491195  0.000324558
430    0.335842    0.667627   -0.319898  0.000391762
440     0.33041    0.664908    0.668417  0.000417626
450     0.32749    0.663447    0.174281  0.000255644
460    0.325297     0.66235     1.40876  0.000196521
470    0.323559     0.66148   -0.994749  0.000208437
480    0.321128    0.660263    -2.47573  0.000234099
490    0.318877    0.659137    -1.53374  0.000347592
500    0.314176    0.656784   0.0385094  0.000341333
510     0.31205    0.655721   -0.859985  0.000282122
520    0.308534    0.653961    -1.87012  0.000333479
530    0.305381    0.652383   -0.860555  0.000225362
540    0.304027    0.651705   -0.209852  0.000411414
550    0.297153    0.648265   -0.320643  0.000314517
560    0.297736    0.648557   -0.232444  0.000231938
570    0.292514    0.645944    0.598711  0.000343768
580    0.290861    0.645116  -0.0978776  0.000212003
590    0.288274    0.643822   -0.389757  0.000352173
600    0.283817    0.641592    0.396324  0.000474189
610     0.27879    0.639076   -0.703593  0.000342061
620    0.276976    0.638168    0.328788  0.000176945
630    0.275251    0.637305    0.104356  0.000308406
640    0.270808    0.635081    0.799761  0.000257353
650    0.270104    0.634729    -0.52485  0.000117432
660     0.26846    0.633906    0.125853  0.000159867
670    0.266907    0.633129     1.49517  0.000270645
680    0.263047    0.631197     1.47271  0.000165269
690    0.263601    0.631475    0.664317  -2.25648e-05
700    0.263498    0.631423     1.74112  0.000222582
710     0.25915    0.629247   0.0578342  0.000277095
720    0.257956    0.628649     1.40418  0.000332198
730    0.252506    0.625922    0.911187  0.000309069
740    0.251775    0.625556    0.529268  5.65991e-05
750    0.251374    0.625355    0.708822  0.000106496
760    0.249645     0.62449   -0.100004  0.000128066
770    0.248812    0.624074    0.618212  3.80956e-05
780    0.248883    0.624109     1.20153  9.05074e-05
790    0.247002    0.623168     1.20171  0.000319204
800    0.242499    0.620914    0.348683  0.000393656
810    0.239129    0.619228     1.29155  0.000325368
820    0.235991    0.617657    0.146669  0.000321306
830    0.232703    0.616012    0.753393  0.000214381
840    0.231704    0.615512    0.820358  3.77975e-05
850    0.231947    0.615633    0.393123  0.000162583
860    0.228452    0.613884    0.820644  0.000136398
870    0.229219    0.614268    0.550128  7.20523e-05
880    0.227011    0.613163   -0.235886  0.000151351
890    0.226192    0.612753    0.616655  0.000233652
900    0.222338    0.610825    0.303258  0.000171331
910    0.222765    0.611039     0.12298  5.49033e-06
920    0.222228     0.61077    0.325259  0.000116555
930    0.220434    0.609872    0.953369  0.00024246
940    0.217379    0.608343    0.594436  0.000160611
950    0.217222    0.608264    0.998115  6.17795e-05
960    0.216143    0.607725    0.301592  0.000107985
970    0.215062    0.607184    -0.21461  0.000113065
980    0.213882    0.606593    0.952448  0.00019595
990    0.211143    0.605222     1.06583  0.000108718
1000    0.211708    0.605505     1.22239  -5.40964e-05
1010    0.212225    0.605764    0.907132  0.000106717
1020    0.209573    0.604437    0.930031  0.000216691
1030    0.207892    0.603595  0.00975636  0.000317489
1040    0.203224    0.601259     1.22204  0.000293519
1050    0.202021    0.600657    0.345987  0.000135105
1060    0.200522    0.599907    0.188894  0.000275231
1070    0.196517    0.597902      1.1771  0.000184837
1080    0.196825    0.598057     0.63677  0.000217447
1090    0.192168    0.595726    -1.38248  0.000195527
1100    0.192914      0.5961    0.367966  1.14702e-05
1110    0.191938    0.595611    0.142876  0.000112541
1120    0.190663    0.594973    0.143512  0.000115245
1130    0.189633    0.594458    0.996295  7.10279e-05
1140    0.189243    0.594262   -0.126608  0.000204876
1150    0.185536    0.592407   -0.261066  0.000311664
1160     0.18301    0.591143    0.053121  3.21165e-05
1170    0.184893    0.592086    0.433879  0.000121861
1180    0.180572    0.589923    0.793842  0.000248618
1190    0.179921    0.589597  -0.0147214  0.00021453
1200    0.176282    0.587776    0.636639  0.000125106
1210    0.177419    0.588345   -0.239482  1.09218e-05
1220    0.176063    0.587667     1.10761  0.000263058
1230    0.172158    0.585712    0.592068  0.000155979
1240    0.172944    0.586106   -0.351523  1.14515e-05
1250    0.171929    0.585598    0.815579   0.0001467
1260     0.17001    0.584637    0.231623  0.000242323
1270    0.167082    0.583172     0.41144  0.000109701
1280    0.167816    0.583539    0.253514  5.98617e-05
1290    0.165885    0.582573    0.186723  3.96974e-05
1300    0.167022    0.583142    0.275996  0.000125661
1310    0.163372    0.581315    0.815272  0.000239249
1320    0.162237    0.580747   -0.150472  0.000295527
1330    0.157461    0.578358     1.12968  0.000144223
1340    0.159352    0.579304     1.06127  -7.79003e-05
1350    0.159019    0.579137    0.387335  9.16265e-05
1360     0.15752    0.578387    0.343006  0.000205978
1370      0.1549    0.577076    0.208175  0.000120039
1380    0.155119    0.577185   -0.577992  -0.000146646
1390    0.157833    0.578543    0.117127  -1.94855e-05
1400    0.155509     0.57738    0.521968  0.000163791
1410    0.154557    0.576904    0.320018  0.000182098
1420    0.151867    0.575558   -0.174117  4.69327e-05
1430    0.153618    0.576434    0.767764  4.22046e-05
1440    0.151023    0.575135    0.768684  0.000221408
1450     0.14919    0.574218    0.611263  3.4707e-05
1460    0.150329    0.574788     0.22908  -9.82732e-07
1470     0.14921    0.574228     1.26161  0.000140304
1480    0.147522    0.573384     1.30649  6.33635e-05
1490    0.147942    0.573594      1.5531  0.000107408
1500    0.145374    0.572309     1.19382  6.10642e-05
1510    0.146721    0.572983    0.497314  7.9526e-05
1520    0.143784    0.571513     1.53016  0.000232044
1530     0.14208     0.57066     2.11422  0.000201619
1540    0.139751    0.569495     2.31674  0.00010094
1550    0.140061     0.56965      1.5078  9.87485e-05
1560    0.137776    0.568506     2.13703  6.24463e-05
1570    0.138813    0.569025     1.14874  -8.02875e-05
1580    0.139382     0.56931      1.7767  5.75393e-05
1590    0.137662    0.568449     2.56241  3.92862e-05
1600    0.138597    0.568917     2.60709  7.60771e-05
1610     0.13614    0.567688     1.44009  0.000123106
1620    0.136134    0.567685     1.25958  0.000175904
1630    0.132622    0.565927     2.56227  0.000178733
1640     0.13256    0.565896     1.70879  0.000124255
1650    0.130137    0.564683     1.66457  0.000250476
1660     0.12755    0.563389     0.38512  4.86188e-05
1670    0.129165    0.564197     1.64169  2.79292e-05
1680    0.126992    0.563109     1.14789  0.000191197
1690    0.125341    0.562283     0.85594  7.55481e-05
1700    0.125481    0.562353     1.21454  0.000155103
1710    0.122239    0.560731      1.9339  0.000102381
1720    0.123433    0.561328     1.50594  -5.33763e-05
1730    0.123306    0.561265     1.86511  0.000174439
1740    0.119944    0.559582     1.52948  0.000140173
1750    0.120503    0.559862     1.25949  -1.33932e-05
1760    0.120212    0.559716    0.652852  7.80746e-06
1770    0.120347    0.559784     1.68514  0.000149046
1780    0.117231    0.558225       1.933  0.000178578
1790    0.116775    0.557996    0.899831  -6.92528e-05
1800    0.118616    0.558918     2.87451  -0.000112094
1810    0.119017    0.559118     2.11135  -5.08454e-05
1820    0.119633    0.559427     1.48212  4.82608e-05
1830    0.118052    0.558635     2.29064  5.0899e-05
1840    0.118615    0.558917     1.84154  5.92064e-05
1850    0.116868    0.558043     2.71733  6.46494e-05
1860    0.117322     0.55827     1.97632  -7.24982e-05
1870    0.118318    0.558768     2.37945  1.90806e-05
1880    0.116941    0.558079      1.4143  9.73195e-05
1890    0.116371    0.557794     1.95307  0.000192222
1900    0.113096    0.556155     2.96376  0.000179019
1910    0.112791    0.556002     1.97549  2.51129e-05
1920    0.112594    0.555904     2.51398  0.000114727
1930    0.110496    0.554854     2.76058  0.000191031
1940    0.108773    0.553992     1.93002  0.000104466
1950    0.108407    0.553809     2.33381  9.11679e-05
1960     0.10695    0.553079     2.85067  1.21843e-05
1970    0.108163    0.553687     3.07429  -1.49235e-05
1980    0.107248    0.553229     3.72549  9.15971e-05
1990    0.106331     0.55277     2.58074  5.07381e-05
2000    0.106234    0.552721     3.14158  0.000146884
2010    0.103394      0.5513     3.00732  7.29691e-05
2020    0.104774    0.551991     3.02943  2.66794e-05
2030     0.10286    0.551033     3.07407  0.000169615
2040    0.101382    0.550293     3.52284  1.5793e-05
2050    0.102544    0.550875     3.34265  -1.70972e-05
2060    0.101724    0.550464      2.8937  4.07159e-05
2070     0.10173    0.550467     3.58926  0.000259366
2080   0.0965365    0.547868     2.62477  0.000132318
2090   0.0990835    0.549143     2.98385  -3.59811e-05
2100   0.0972562    0.548228      1.9509  0.000105246
2110   0.0969785    0.548089     3.81402  1.94438e-05
2120   0.0968673    0.548034     3.85848  3.61718e-05
2130   0.0962551    0.547727     3.81398  -7.52557e-05
2140   0.0983724    0.548787     4.77773  6.70433e-05
2150   0.0949142    0.547056     3.83561  0.000220544
2160   0.0939615     0.54658     3.11765  -1.65194e-05
2170   0.0952446    0.547222     2.96056  -0.000120062
2180   0.0963628    0.547781     3.49929  -0.000117562
2190   0.0975959    0.548398     4.03723   6.749e-05
2200    0.095013    0.547106     2.84742  0.000171444
2210    0.094167    0.546682     3.49834  0.00011849
2220   0.0926432     0.54592     3.38641  8.20741e-05
2230   0.0925255    0.545861     3.29637  0.000155812
2240   0.0895269     0.54436     3.29683  0.000178662
2250   0.0889523    0.544073     3.38668  -7.26055e-05
2260    0.090979    0.545087     2.44267  1.04196e-06
2270   0.0889314    0.544062      2.7118  0.000244788
2280   0.0860833    0.542637     2.98225  0.000191406
2290   0.0851033    0.542147     3.20644  0.00020621
2300   0.0819591    0.540573      2.6904  0.000109772
2310   0.0829079    0.541048     2.28547  9.89396e-05
2320   0.0799803    0.539583     1.02791  0.000116067
2330   0.0805865    0.539886     1.97071  1.07966e-05
2340   0.0797644    0.539475     1.85854  0.00013102
2350   0.0779661    0.538575     2.17273  8.54034e-05
2360   0.0780563     0.53862     2.57632  0.000160355
2370    0.074759     0.53697     2.73415  0.00018071
2380   0.0744421    0.536811     2.03787  4.89756e-05
2390   0.0737795     0.53648     1.70116  0.000164339
2400   0.0711553    0.535166     1.34194  0.00014159
2410   0.0709477    0.535062     1.63384  -9.19361e-05
2420    0.072994    0.536086     1.47583  2.08016e-05
2430   0.0705317    0.534854      1.7005  0.000240744
2440   0.0681791    0.533677     2.41874  0.000218192
2450   0.0661678     0.53267     2.35199  -2.81204e-05
2460   0.0687415    0.533958     0.35297  4.09111e-06
2470    0.066086    0.532629     2.37408  0.000230936
2480   0.0641228    0.531647     2.59805  0.000141198
2490    0.063262    0.531216     2.46342  5.69671e-05
2500   0.0629835    0.531077     1.00394  0.00014486
2510   0.0603648    0.529766    0.599972  0.000101173
2520     0.06096    0.530064    0.981124  9.87431e-05
2530     0.05839    0.528778     0.75667  6.35419e-05
2540   0.0596892    0.529428    0.778978  7.28142e-05
2550   0.0569337    0.528049   -0.320829  1.97235e-05
2560   0.0592947    0.529231    0.217328  -2.99904e-05
2570   0.0575335    0.528349   -0.119362  0.000220592
2580   0.0548829    0.527023     0.46455  0.000129466
2590   0.0549442    0.527054    0.868404  2.73343e-06
2600   0.0548282    0.526996      1.0478  3.23724e-05
2610   0.0542967     0.52673    0.958686  -3.28727e-05
2620   0.0554856    0.527325     1.31709  -4.17817e-05
2630   0.0551324    0.527148    0.396905  -0.000107455
2640   0.0576347      0.5284    0.777487  -0.000125428
2650   0.0576409    0.528403    0.732763  4.11741e-05
2660   0.0568113    0.527988    0.777597  0.00016076
2670   0.0544257    0.526794   -0.344517  8.03178e-05
2680   0.0552049    0.527184   -0.704086  9.57238e-05
2690   0.0525113    0.525836   -0.636661  5.37157e-05
2700   0.0541306    0.526646    0.170916  6.01713e-05
2710   0.0513078    0.525234    -0.14316  0.000279685
2720   0.0485369    0.523847    0.373391  0.000105722
2730   0.0491934    0.524176    0.979129  6.40005e-05
2740   0.0472569    0.523207     1.02418  0.000136505
2750   0.0464633    0.522809     1.04669  7.34216e-05
2760   0.0457884    0.522472    0.822079  8.27176e-05
2770   0.0448089    0.521981      1.8322  4.04654e-05
2780   0.0449791    0.522067     1.36061  0.000128769
2790   0.0422336    0.520693     1.42832  0.000165417
2800   0.0416708    0.520411    0.956625  2.58872e-05
2810   0.0417158    0.520434     1.22631  5.34596e-05
2820   0.0406016    0.519876    0.889527  0.000111577
2830   0.0394843    0.519317     1.54019  0.000136374
2840   0.0378741    0.518511     1.98964  9.0763e-05
2850    0.037669    0.518408      1.3603  -5.61574e-05
2860   0.0389973    0.519073     1.38158  0.000149642
2870   0.0346762    0.516911    0.596924  0.000134283
2880   0.0363116    0.517729    0.439086  -9.59977e-05
2890   0.0365961    0.517871     1.24732  0.000135046
2900   0.0336107    0.516377     1.00016  0.00016609
2910   0.0332743    0.516209    0.753053  0.000179096
2920   0.0300287    0.514585    0.865313  0.000275439
2930   0.0277655    0.513452     1.24677  0.000142895
2940   0.0271709    0.513155      1.4936  1.60314e-05
2950   0.0274449    0.513292     1.20172  0.000190376
2960   0.0233633    0.511249     1.47171  0.000175023
2970   0.0239444     0.51154      2.6609  -0.00011743
2980   0.0257119    0.512425     2.70608  1.66686e-05
2990   0.0236111    0.511373     2.32383  0.000113411
3000   0.0234437    0.511289     2.21175  7.00627e-05
3010   0.0222098    0.510672     2.52644  9.21447e-05
3020   0.0216008    0.510367     2.45871  -2.38684e-05
3030   0.0226872    0.510911     1.73948  6.4322e-05
3040   0.0203144    0.509723     2.68312  8.94946e-05
3050   0.0208973    0.510015     1.53817  4.7463e-06
3060   0.0202195    0.509676     2.45844  8.05082e-05
3070   0.0192871    0.509209     1.98648  0.000106032
3080   0.0180988    0.508615     1.26818  0.000100017
3090   0.0172868    0.508208     1.20069  5.90696e-05
3100   0.0169174    0.508023      1.4024  7.19506e-05
3110   0.0158478    0.507488      1.2899  0.000110326
3120   0.0147109    0.506919     1.33528  8.83393e-05
3130    0.014081    0.506604     2.07637  -6.78177e-05
3140   0.0160673    0.507598     1.06586  -0.000112607
3150   0.0163331    0.507731    0.975797  -7.14444e-05
3160   0.0174962    0.508313     2.12149  -3.95068e-05
3170   0.0171233    0.508126     1.38037  8.22947e-05
3180   0.0158503    0.507489     1.65025  -0.000100857
3190   0.0191404    0.509136     1.33519  -0.000200636
3200    0.019863    0.509497     1.91853  0.000146986
3210   0.0162007    0.507665       1.111  0.000111517
3220   0.0176327    0.508381    0.706115  -0.000117526
3230   0.0185512    0.508841    0.818703  -0.000127596
3240   0.0201846    0.509658    0.705852  -5.32751e-05
3250   0.0196167    0.509374    0.795716  -5.0369e-05
3260    0.021192    0.510163   0.0764919  1.74493e-06
3270   0.0195818    0.509357  0.00924144  0.000148189
3280   0.0182282    0.508679    0.817892  0.000262886
3290   0.0143241    0.506726   0.0771715  0.000126179
3300   0.0157046    0.507416       0.593  8.11097e-05
3310   0.0127019    0.505914    0.907384  0.000166281
3320    0.012379    0.505752     1.06437  -5.00213e-07
3330   0.0127119    0.505919    0.997007  -3.73987e-06
3340   0.0124538     0.50579    0.234024  -2.02596e-05
3350   0.0131171    0.506122   -0.237783  6.5519e-05
3360   0.0111434    0.505134    0.346459  -6.99497e-05
3370   0.0145161    0.506822     1.04162  -0.000165721
3380   0.0144578    0.506792   -0.147939  5.55381e-05
3390   0.0134053    0.506266   -0.372438  -7.37848e-05
3400   0.0159335    0.507531    0.525004  -3.05085e-05
3410   0.0140155    0.506571    0.570626  0.000102197
3420   0.0138896    0.506508  -0.0582724  -5.07203e-05
3430   0.0150299    0.507079   -0.216046  2.26893e-05
3440   0.0134358    0.506281   -0.103545  0.000122862
3450   0.0125727    0.505849    0.165852  0.000109903
3460   0.0112377    0.505181   -0.305406  -2.73284e-05
3470   0.0131192    0.506123   -0.126247  8.37061e-05
3480  0.00956362    0.504343    -1.02406  0.000147474
3490   0.0101697    0.504647     -1.4282  -2.36302e-05
3500   0.0100362     0.50458    -1.47308  3.3623e-05
3510  0.00949728     0.50431   -0.193497  9.45386e-05
3520  0.00814545    0.503633   -0.215652  3.3766e-06
3530  0.00942975    0.504276   -0.956854  -6.08382e-05
3540  0.00936221    0.504242   -0.238637  0.000105246
3550  0.00732482    0.503223  -0.0140969  0.000146254
3560  0.00643714    0.502779    -1.81019  6.84549e-05
3570  0.00595573    0.502538    -1.60793  -3.02464e-05
3580  0.00704207    0.503081    -2.57356  -6.78117e-05
3590  0.00731196    0.503216   -0.710291  -0.00015022
3600   0.0100465    0.504585      -1.227  -7.16469e-05
3610   0.0087449    0.503933    -1.13689  0.00021961
3620  0.00565427    0.502387  -0.0140318  4.82251e-05
3630   0.0077804    0.503451   -0.957139  -6.82941e-05
3640  0.00702016     0.50307   -0.710225  3.81906e-05
3650  0.00701658    0.503069    -1.13696  3.75183e-07
3660  0.00701265    0.503067    -1.24917  0.00012494
3670  0.00451779    0.501818    -1.04692  0.000132068
3680  0.00437129    0.501745    -1.22665  -2.3529e-05
3690  0.00498836    0.502054   -0.530978  -0.000120884
3700  0.00678898    0.502955    -1.18253  -4.80584e-05
3710  0.00594953    0.502535   -0.441288  -1.3554e-05
3720  0.00706006     0.50309    -0.68851  1.10409e-05
3730  0.00572871    0.502424   -0.845537  3.88457e-05
3740  0.00628314    0.502702    -0.50924  -9.75758e-05
3750  0.00768023    0.503401   -0.195317  -5.91827e-05
3760   0.0074668    0.503294   -0.105254  2.84063e-05
3770   0.0071121    0.503116   -0.239888  2.49463e-05
3780  0.00696787    0.503044     0.50068  7.44399e-05
3790  0.00562331    0.502371   -0.486999  6.04571e-05
3800  0.00575873    0.502439    0.321345  -1.356e-05
3810  0.00589451    0.502507    0.365849  -2.06764e-05
3820  0.00617226    0.502646   -0.240391  6.80261e-05
3830  0.00453398    0.501826    0.590347  2.54287e-05
3840  0.00566368    0.502392   -0.307708  -0.000106074
3850  0.00665546    0.502888  -0.0157847  4.15077e-06
3860  0.00558067     0.50235   0.0963876  5.76165e-05
3870  0.00550313    0.502311   -0.464955  -4.59205e-05
3880  0.00649908     0.50281    -0.28573  -1.37029e-05
3890  0.00577719    0.502448   -0.397441  6.1535e-05
3900  0.00526838    0.502194   -0.509854  3.6547e-05
3910  0.00504625    0.502083    0.320951  -0.000114626
3920  0.00756089    0.503341    0.477693  -9.67004e-05
3930  0.00698026     0.50305    0.185484  -0.000118979
3940  0.00994046    0.504532    0.768981  -5.7545e-05
3950  0.00813116    0.503626    0.208296  0.000126822
3960  0.00740403    0.503262    0.432465  4.01678e-05
3970   0.0073278    0.503224   -0.173514  3.67137e-05
3980  0.00666975    0.502895     0.43275  4.7713e-05
3990  0.00637354    0.502747    0.634698  -3.96854e-05
4000  0.00746346    0.503292  -0.0170124  -8.36168e-05
4010  0.00804588    0.503584   0.0503256  6.25652e-05
4020  0.00621216    0.502666    0.342249  6.62813e-05
4030  0.00672025     0.50292   -0.533675  0.000136511
4040  0.00348194      0.5013   -0.174172  8.51056e-05
4050  0.00501814    0.502068    0.902999  -0.000139149
4060  0.00626492    0.502692    0.251815  4.87551e-05
4070  0.00404304     0.50158    0.588922  5.23521e-05
4080  0.00521788    0.502168     0.72316  2.3118e-05
4090  0.00358068    0.501349     1.12767  0.000156627
4100  0.00208533    0.500601    0.364578  0.000108831
4110  0.00140406     0.50026    0.544198  -3.2301e-05
4120  0.00273135    0.500924     1.57658  -8.44565e-05
4130  0.00309319    0.501105     1.26191  0.000202977
4140  -0.00132819    0.498892     1.28488  0.000244446
4150  -0.00179573    0.498659     0.36403  0.000106851
4160  -0.00346521    0.497823    0.656041  0.000103346
4170  -0.00386266    0.497624    0.341657  -1.56622e-06
4180  -0.00343388    0.497839    0.880189  -5.25843e-06
4190  -0.00375749    0.497677    0.813091  0.000183503
4200  -0.00710395    0.496002    0.992974  8.54868e-05
4210  -0.00546722    0.496821     1.26178  -0.00011085
4220  -0.00488695    0.497112    0.834718  3.67614e-05
4230  -0.00620245    0.496453     1.77785  1.76809e-05
4240  -0.00524057    0.496935     1.21609  0.000265557
4250  -0.0115136    0.493795     1.57592  0.000258223
4260   -0.010405     0.49435    0.699867  0.000190935
4270  -0.0153323    0.491884     1.55337  0.000225562
4280  -0.0149163    0.492092     1.64313  -8.00586e-05
4290  -0.0137311    0.492686      1.5528  6.18952e-05
4300  -0.0161542    0.491473     1.59814  0.000134936
4310  -0.0164298    0.491335      1.1711  0.000108626
4320  -0.0183267    0.490386     1.68755  0.000116591
4330  -0.0187616    0.490168     2.11379  -4.54321e-05
4340   -0.017418     0.49084     1.97914  6.3134e-05
4350  -0.0200243    0.489536     1.37292  0.000121263
4360  -0.0198433    0.489627     1.84451  9.47083e-05
4370  -0.0219185    0.488588     1.95674  9.87341e-05
4380   -0.021818    0.488639     1.84442  0.000122692
4390  -0.0243723     0.48736     1.68695  4.85914e-05
4400  -0.0227898    0.488152     2.33757  2.12006e-06
4410  -0.0244147    0.487339     1.95598  0.000311951
4420  -0.0290288     0.48503      1.8215  0.000218427
4430  -0.0287833    0.485153     1.52916  0.000188125
4440  -0.0327913    0.483147     1.82124  0.000212103
4450  -0.0330253     0.48303     1.10287  -5.16852e-05
4460  -0.0317576    0.483664    0.900478  7.50205e-05
4470  -0.0345257    0.482279    0.720902  0.000221718
4480   -0.036192    0.481445     1.48415  9.14359e-05
4490  -0.0363545    0.481364     1.55162  7.99723e-05
4500  -0.0377914    0.480645     2.17958  0.000139968
4510  -0.0391538    0.479963     1.79783  -3.9346e-05
4520  -0.0370045    0.481039     1.84251  0.000117001
4530  -0.0414939    0.478792     1.91016  0.000305343
4540  -0.0431113    0.477982     2.42647  0.000302708
4550   -0.047548    0.475762      1.9773  0.000166683
4560   -0.046445    0.476314     2.44823  -5.63655e-06
4570  -0.0474353    0.475819     1.66261  0.000107295
4580  -0.0485909     0.47524     1.97695  7.12508e-05
4590  -0.0488603    0.475105     2.42583  7.15695e-05
4600  -0.0500223    0.474524     2.15624  -0.000123323
4610  -0.0463938     0.47634     2.24584  -1.17924e-06
4620  -0.0499987    0.474536     3.18901  0.000263288
4630  -0.0516596    0.473704     2.87467  -2.56848e-05
4640   -0.049485    0.474793     3.05379  -0.00010733
4650   -0.049513    0.474779      2.7845  3.56121e-05
4660  -0.0501972    0.474436     2.38008  3.98133e-05
4670  -0.0503093     0.47438     1.61685  1.94348e-05
4680  -0.0505859    0.474242     2.64945  0.000184501
4690  -0.0539993    0.472534     2.26824  0.00011877
4700  -0.0529613    0.473053     1.86372  3.68001e-05
4710  -0.0547353    0.472165      1.8186  0.000148707
4720  -0.0559355    0.471565     2.26769  0.000132705
4730  -0.0573894    0.470837     2.02073  -8.41469e-06
4740  -0.0557672    0.471649     2.55897  8.7833e-05
4750  -0.0591461    0.469958      2.3125  0.000100223
4760  -0.0577717    0.470646     2.96362  -7.84583e-06
4770  -0.0589891    0.470036     2.96353  0.000130356
4780  -0.0603788    0.469341      2.5146  -2.05157e-05
4790  -0.0585788    0.470242     2.62633  4.28922e-05
4800  -0.0612366    0.468912     2.28988  0.000139694
4810  -0.0613727    0.468844     2.17751  9.39742e-06
4820  -0.0614246    0.468818     2.08732  -1.59778e-05
4830  -0.0610531    0.469004      2.3118  4.76981e-05
4840  -0.0623785     0.46834     1.68327  0.000196572
4850  -0.0649846    0.467036     1.99785  0.000163095
4860  -0.0656404    0.466708     2.40186  1.02248e-05
4870  -0.0651891    0.466934     2.35709  4.45925e-05
4880  -0.0665323    0.466262     2.44665  6.17467e-05
4890   -0.066424    0.466316     2.53597  0.000152319
4900  -0.0695786    0.464737     2.62609  0.000148278
4910  -0.0693896    0.464832     1.68309  7.15844e-05
4920  -0.0710103    0.464021      2.2218  0.000184027
4930  -0.0730701     0.46299     1.54864  0.000236665
4940  -0.0757436    0.461652     1.77349  8.13838e-05
4950  -0.0746978    0.462175     1.86298  -6.56888e-05
4960  -0.0744299    0.462309     1.81773  5.15271e-05
4970  -0.0757283    0.461659     1.70525  0.000160689
4980  -0.0776436    0.460701     2.42379  -2.67148e-05
4990   -0.075194    0.461927      2.4012  -0.000214119
