Time   Number   
ps   
0          43          37
10          40          38
20          42          41
30          46          37
40          42          38
50          45          40
60          45          34
70          41          34
80          43          31
90          40          33
100          42          30
110          38          37
120          39          26
130          37          34
140          37          39
150          43          31
160          45          34
170          43          37
180          47          33
190          43          40
200          43          43
210          39          38
220          40          40
230          40          45
240          39          39
250          42          39
260          43          37
270          42          34
280          43          42
290          44          41
300          44          42
310          45          39
320          40          39
330          45          38
340          38          34
350          42          45
360          36          49
370          46          40
380          45          36
390          44          28
400          41          33
410          43          37
420          43          33
430          47          32
440          43          38
450          44          33
460          43          36
470          45          40
480          44          43
490          43          47
500          38          38
510          46          39
520          49          44
530          41          38
540          46          45
550          43          41
560          47          38
570          42          40
580          44          42
590          41          43
600          44          34
610          46          37
620          42          39
630          43          38
640          45          36
650          43          41
660          41          44
670          43          47
680          41          37
690          42          34
700          41          33
710          42          38
720          44          31
730          49          32
740          44          39
750          40          38
760          40          39
770          42          38
780          43          39
790          41          41
800          42          40
810          39          42
820          45          42
830          45          40
840          43          34
850          48          44
860          43          36
870          41          46
880          42          43
890          42          42
900          45          43
910          38          48
920          45          44
930          44          47
940          43          47
950          44          33
960          45          46
970          43          38
980          45          32
990          44          42
1000          51          31
1010          44          38
1020          42          45
1030          46          37
1040          42          50
1050          41          33
1060          45          41
1070          42          41
1080          44          38
1090          39          40
1100          43          37
1110          41          35
1120          45          35
1130          39          39
1140          38          41
1150          44          37
1160          34          42
1170          37          39
1180          41          38
1190          42          37
1200          47          38
1210          41          36
1220          43          44
1230          47          34
1240          42          40
1250          44          46
1260          42          43
1270          40          42
1280          39          41
1290          42          28
1300          42          45
1310          40          48
1320          46          45
1330          40          39
1340          43          43
1350          41          37
1360          40          44
1370          40          46
1380          40          42
1390          41          34
1400          41          45
1410          40          40
1420          41          40
1430          40          37
1440          39          43
1450          46          44
1460          40          36
1470          44          42
1480          40          43
1490          42          41
1500          40          41
1510          42          47
1520          46          43
1530          40          40
1540          39          47
1550          42          31
1560          49          51
1570          47          47
1580          43          44
1590          46          42
1600          47          43
1610          47          37
1620          37          44
1630          43          50
1640          46          46
1650          42          37
1660          52          45
1670          43          37
1680          42          48
1690          41          44
1700          40          38
1710          43          48
1720          43          42
1730          42          39
1740          44          39
1750          41          43
1760          42          46
1770          48          38
1780          47          48
1790          44          42
1800          37          31
1810          39          51
1820          42          43
1830          41          43
1840          45          45
1850          44          39
1860          43          41
1870          47          51
1880          44          49
1890          45          38
1900          50          50
1910          47          44
1920          46          36
1930          44          41
1940          49          48
1950          49          44
1960          44          42
1970          44          39
1980          49          44
1990          45          36
2000          46          35
2010          49          35
2020          43          41
2030          39          42
2040          44          40
2050          48          43
2060          45          39
2070          42          48
2080          46          43
2090          48          40
2100          45          47
2110          45          47
2120          47          34
2130          47          47
2140          42          46
2150          42          47
2160          42          46
2170          44          41
2180          48          40
2190          46          44
2200          48          46
2210          43          42
2220          46          40
2230          48          44
2240          49          36
2250          47          47
2260          49          44
2270          49          42
2280          51          35
2290          47          41
2300          48          40
2310          46          45
2320          49          40
2330          48          43
2340          48          45
2350          46          43
2360          48          37
2370          45          38
2380          49          35
2390          44          33
2400          47          42
2410          45          36
2420          39          38
2430          47          36
2440          48          38
2450          42          37
2460          44          38
2470          45          39
2480          43          40
2490          47          42
2500          45          47
2510          46          38
2520          51          52
2530          51          44
2540          48          48
2550          48          44
2560          46          38
2570          45          42
2580          49          49
2590          47          46
2600          50          50
2610          54          43
2620          51          39
2630          47          47
2640          53          47
2650          50          51
2660          45          42
2670          47          47
2680          43          48
2690          42          49
2700          47          50
2710          50          43
2720          48          45
2730          49          40
2740          47          38
2750          53          37
2760          54          39
2770          46          46
2780          47          41
2790          47          43
2800          45          45
2810          49          46
2820          49          40
2830          50          43
2840          46          48
2850          48          49
2860          52          41
2870          51          43
2880          50          45
2890          49          48
2900          50          35
2910          52          47
2920          47          44
2930          49          42
2940          49          43
2950          48          48
2960          49          53
2970          47          53
2980          52          47
2990          50          48
3000          52          48
3010          48          47
3020          48          44
3030          53          44
3040          45          44
3050          50          36
3060          44          38
3070          42          45
3080          46          45
3090          44          34
3100          45          38
3110          49          34
3120          46          34
3130          43          35
3140          46          38
3150          47          38
3160          47          37
3170          45          26
3180          52          32
3190          42          44
3200          52          42
3210          49          42
3220          51          42
3230          51          36
3240          50          42
3250          53          51
3260          49          52
3270          44          42
3280          47          49
3290          48          48
3300          50          44
3310          45          47
3320          50          43
3330          50          51
3340          42          54
3350          50          50
3360          51          52
3370          50          50
3380          45          53
3390          44          47
3400          49          51
3410          40          49
3420          43          39
3430          46          42
3440          47          40
3450          45          40
3460          41          48
3470          45          37
3480          46          49
3490          48          46
3500          43          36
3510          49          39
3520          45          41
3530          47          37
3540          42          43
3550          52          47
3560          46          52
3570          50          43
3580          47          47
3590          47          52
3600          45          53
3610          49          54
3620          45          53
3630          47          52
3640          51          46
3650          39          48
3660          50          50
3670          47          52
3680          49          52
3690          48          42
3700          49          47
3710          48          47
3720          46          47
3730          47          40
3740          46          47
3750          50          44
3760          48          48
3770          45          43
3780          45          49
3790          48          49
3800          45          38
3810          46          43
3820          44          40
3830          46          43
3840          46          43
3850          44          41
3860          50          45
3870          44          40
3880          44          34
3890          45          48
3900          47          47
3910          39          42
3920          44          42
3930          44          45
3940          44          42
3950          46          39
3960          42          42
3970          47          42
3980          51          47
3990          51          49
4000          54          44
4010          51          43
4020          59          44
4030          57          53
4040          54          50
4050          53          44
4060          55          50
4070          54          47
4080          49          47
4090          47          37
4100          49          49
4110          55          55
4120          55          59
4130          53          49
4140          49          49
4150          52          52
4160          53          46
4170          54          45
4180          50          47
4190          55          49
4200          52          46
4210          51          54
4220          51          49
4230          51          53
4240          50          42
4250          52          53
4260          48          49
4270          53          44
4280          50          46
4290          50          43
4300          50          51
4310          47          52
4320          46          46
4330          47          47
4340          48          51
4350          47          48
4360          52          46
4370          47          54
4380          51          47
4390          49          47
4400          53          52
4410          51          45
4420          52          49
4430          51          41
4440          49          47
4450          47          48
4460          50          49
4470          48          50
4480          48          50
4490          46          51
4500          51          53
4510          51          50
4520          53          53
4530          55          46
4540          49          51
4550          51          60
4560          48          50
4570          50          37
4580          50          44
4590          47          46
4600          51          52
4610          49          50
4620          48          55
4630          47          49
4640          47          52
4650          49          43
4660          51          39
4670          51          48
4680          50          48
4690          52          54
4700          55          53
4710          49          53
4720          51          47
4730          44          51
4740          46          42
4750          49          52
4760          52          46
4770          48          44
4780          49          53
4790          50          53
4800          48          49
4810          51          46
4820          50          42
4830          48          48
4840          47          50
4850          49          46
4860          52          48
4870          50          54
4880          46          44
4890          43          39
4900          48          44
4910          44          51
4920          46          43
4930          54          43
4940          46          60
4950          47          44
4960          49          53
4970          41          54
4980          46          55
4990          46          61
5000          49          39
5010          51          50
5020          49          56
5030          51          47
5040          49          44
5050          45          54
5060          47          48
5070          48          48
5080          53          53
5090          50          43
5100          47          52
5110          48          46
5120          47          51
5130          48          48
5140          49          37
5150          44          53
5160          46          59
5170          41          52
5180          41          44
5190          49          40
5200          50          43
5210          50          48
5220          46          46
5230          51          46
5240          48          43
5250          55          55
5260          51          49
5270          52          54
5280          50          43
5290          49          47
5300          54          41
5310          56          47
5320          51          50
5330          49          46
5340          55          37
5350          50          53
5360          51          47
5370          54          46
5380          54          44
5390          51          47
5400          49          50
5410          47          42
5420          50          45
5430          51          46
5440          45          48
5450          51          37
5460          51          43
5470          47          52
5480          51          44
5490          45          45
5500          51          40
5510          49          47
5520          49          47
5530          52          47
5540          53          43
5550          48          46
5560          52          44
5570          52          50
5580          48          44
5590          50          45
5600          48          47
5610          50          41
5620          52          46
5630          50          47
5640          48          39
5650          51          33
5660          49          45
5670          47          41
5680          52          44
5690          50          41
5700          50          42
5710          47          44
5720          49          56
5730          47          43
5740          52          56
5750          45          47
5760          49          42
5770          51          44
5780          44          43
5790          46          47
5800          45          44
5810          45          51
5820          49          45
5830          47          48
5840          48          40
5850          48          45
5860          48          46
5870          54          44
5880          46          47
5890          49          48
5900          51          40
5910          51          43
5920          47          48
5930          47          42
5940          49          42
5950          42          48
5960          48          37
5970          46          41
5980          47          51
5990          47          44
6000          45          43
6010          46          49
6020          42          49
6030          41          38
6040          42          36
6050          40          46
6060          47          43
6070          42          38
6080          42          44
6090          43          45
6100          48          49
6110          43          43
6120          46          45
6130          43          47
6140          42          45
6150          42          45
6160          44          40
6170          46          39
6180          41          47
6190          40          38
6200          43          43
6210          48          36
6220          43          39
6230          38          35
6240          48          42
6250          43          43
6260          42          41
6270          37          39
6280          40          48
6290          43          45
6300          43          47
6310          43          41
6320          40          46
6330          38          45
6340          38          37
6350          44          51
6360          44          46
6370          42          50
6380          46          53
6390          44          43
6400          47          45
6410          48          38
6420          43          42
6430          41          53
6440          42          49
6450          43          55
6460          49          47
6470          43          49
6480          42          42
6490          44          56
6500          48          49
6510          43          51
6520          48          46
6530          43          56
6540          48          51
6550          42          43
6560          43          45
6570          47          48
6580          45          44
6590          46          50
6600          47          49
6610          53          51
6620          51          48
6630          48          49
6640          48          48
6650          43          52
6660          46          49
6670          44          48
6680          49          49
6690          43          43
6700          45          42
6710          41          49
6720          51          42
6730          43          49
6740          43          52
6750          43          54
6760          44          48
6770          51          46
6780          44          53
6790          45          47
6800          47          43
6810          42          53
6820          43          59
6830          39          49
6840          36          59
6850          44          50
6860          43          43
6870          46          47
6880          43          49
6890          41          47
6900          43          46
6910          43          39
6920          44          37
6930          48          45
6940          42          47
6950          45          46
6960          43          47
6970          43          40
6980          39          42
6990          45          44
7000          42          34
7010          41          36
7020          44          38
7030          39          45
7040          42          36
7050          42          40
7060          44          47
7070          42          39
7080          44          42
7090          44          39
7100          41          51
7110          46          49
7120          42          45
7130          41          40
7140          43          43
7150          41          40
7160          43          49
7170          40          44
7180          42          37
7190          41          47
7200          40          39
7210          42          41
7220          41          37
7230          42          45
7240          42          39
7250          37          41
7260          37          47
7270          40          32
7280          45          36
7290          40          47
7300          40          50
7310          44          41
7320          39          44
7330          47          41
7340          43          40
7350          46          51
7360          49          47
7370          48          48
7380          46          46
7390          43          44
7400          43          52
7410          43          39
7420          45          60
7430          45          50
7440          45          53
7450          45          50
7460          43          42
7470          46          50
7480          49          37
7490          45          52
7500          49          47
7510          45          47
7520          45          40
7530          48          49
7540          42          52
7550          46          56
7560          45          60
7570          39          48
7580          41          55
7590          42          51
7600          41          56
7610          41          51
7620          43          44
7630          43          42
7640          43          45
7650          43          51
7660          50          48
7670          40          46
7680          42          41
7690          40          46
7700          38          41
7710          34          38
7720          40          34
7730          44          35
7740          40          38
7750          37          39
7760          43          44
7770          37          48
7780          38          44
7790          39          30
7800          33          48
7810          38          43
7820          32          43
7830          37          42
7840          39          38
7850          37          44
7860          40          39
7870          36          32
7880          38          38
7890          40          44
7900          35          43
7910          32          40
7920          40          50
7930          37          47
7940          37          55
7950          44          55
7960          45          47
7970          47          47
7980          42          47
7990          43          41
8000          41          45
8010          44          43
8020          47          46
8030          46          50
8040          46          44
8050          41          41
8060          46          50
8070          52          41
8080          49          55
8090          46          40
8100          48          41
8110          48          37
8120          44          31
8130          45          34
8140          45          40
8150          48          43
8160          46          35
8170          49          41
8180          48          44
8190          51          49
8200          47          48
8210          51          39
8220          48          47
8230          50          37
8240          46          43
8250          49          50
8260          50          39
8270          50          40
8280          55          44
8290          49          41
8300          53          37
8310          56          43
8320          45          43
8330          52          44
8340          50          46
8350          47          45
8360          53          45
8370          50          44
8380          47          32
8390          48          41
8400          50          45
8410          50          38
8420          44          39
8430          39          44
8440          41          38
8450          43          38
8460          43          41
8470          45          34
8480          42          39
8490          45          44
8500          42          44
8510          43          38
8520          48          37
8530          50          40
8540          46          46
8550          46          36
8560          46          42
8570          45          38
8580          50          35
8590          46          35
8600          52          37
8610          43          43
8620          48          38
8630          48          42
8640          46          41
8650          47          33
8660          50          39
8670          49          38
8680          46          32
8690          48          40
8700          46          36
8710          44          32
8720          41          39
8730          44          38
8740          47          41
8750          46          37
8760          44          39
8770          42          44
8780          46          37
8790          46          34
8800          42          36
8810          43          41
8820          42          34
8830          42          33
8840          44          38
8850          39          47
8860          40          45
8870          46          39
8880          45          40
8890          41          36
8900          41          38
8910          46          31
8920          46          38
8930          46          42
8940          48          36
8950          46          42
8960          43          37
8970          42          38
8980          42          34
8990          47          41
9000          43          36
9010          46          32
9020          43          40
9030          47          39
9040          41          40
9050          39          37
9060          46          34
9070          46          39
9080          49          40
9090          46          44
9100          45          35
9110          43          33
9120          47          38
9130          45          44
9140          43          39
9150          44          37
9160          47          36
9170          46          38
9180          41          40
9190          43          48
9200          46          38
9210          39          38
9220          43          35
9230          41          35
9240          42          37
9250          43          44
9260          49          36
9270          42          50
9280          46          45
9290          43          37
9300          46          37
9310          44          32
9320          51          38
9330          45          41
9340          46          37
9350          43          35
9360          47          40
9370          41          40
9380          46          33
9390          45          35
9400          43          46
9410          44          39
9420          48          43
9430          49          36
9440          44          37
9450          49          48
9460          46          37
9470          46          38
9480          47          43
9490          47          39
9500          51          38
9510          47          36
9520          45          46
9530          44          39
9540          43          44
9550          47          35
9560          49          43
9570          47          39
9580          49          37
9590          49          42
9600          53          40
9610          52          48
9620          48          46
9630          44          46
9640          50          51
9650          47          47
9660          42          39
9670          43          43
9680          46          35
9690          44          41
9700          48          42
9710          47          39
9720          46          39
9730          50          47
9740          45          52
9750          48          43
9760          45          43
9770          44          40
9780          44          41
9790          45          40
9800          44          38
9810          46          39
9820          42          43
9830          41          38
9840          42          44
9850          44          44
9860          41          42
9870          47          39
9880          48          35
9890          46          39
9900          39          43
9910          45          45
9920          47          44
9930          44          43
9940          49          33
9950          44          45
9960          47          37
9970          51          42
9980          47          37
9990          48          36
10000          49          43
