Time   C(t)   
ps   
0           1           1  -2.41831e-10   0.0716859
10    0.296816    0.905459   -0.440107   0.0367935
20    0.264129    0.901064     0.22311   0.0019012
30    0.258792    0.900347   0.0415061  0.00119294
40     0.24027    0.897856   -0.409404  0.00126068
50    0.233578    0.896957    0.252844  0.000988851
60    0.220493    0.895198    0.313839  0.00102361
70    0.213106    0.894204    -1.04107  0.000518963
80    0.210114    0.893802   0.0122137  0.000277481
90    0.207557    0.893458    0.131853  2.42054e-05
100     0.20963    0.893737    0.763515  0.000555095
110    0.196455    0.891966   -0.771466  0.00108641
120    0.187902    0.890816  -0.0483993   0.0006902
130    0.182651     0.89011   -0.981657  0.000935628
140    0.169189      0.8883    0.463359  0.000870547
150     0.16524    0.887769   -0.650181  0.000628355
160    0.156622     0.88661    0.553588  0.000284553
170    0.159549    0.887004   -0.801082  6.31966e-05
180    0.155358     0.88644   -0.620741  0.00036393
190     0.15227    0.886025    0.222141  8.57852e-05
200    0.153643     0.88621   -0.380464  0.000599761
210    0.140275    0.884412    0.343073  0.000410347
220    0.145436    0.885106    0.192025  0.000434376
230    0.131587    0.883244   -0.439931  0.000635981
240    0.132716    0.883396   -0.590861  8.87327e-05
250    0.129813    0.883006   -0.440519  0.000369207
260    0.125332    0.882403  -0.0489872  8.8954e-05
270    0.128034    0.882767    -1.22417  0.000269501
280    0.119942    0.881679  -0.0501337  0.000629841
290    0.115437    0.881073    0.251286  0.000157892
300    0.116784    0.881254   -0.441018  0.000169796
310    0.112041    0.880616    -1.52506  0.000135925
320    0.114066    0.880889   -0.532041  0.000328819
330    0.105465    0.879732   -0.651856  0.000736351
340   0.0993385    0.878909   -0.350672  0.000216811
350    0.101128    0.879149   0.0108322  -0.000337863
360    0.106096    0.879817    -1.22426  -0.000236251
370    0.105853    0.879784    -1.01351  0.000137943
380    0.103337    0.879446   -0.863811  0.000752377
390   0.0908058    0.877761   -0.320409  0.000753397
400    0.088269     0.87742   -0.260736  -0.00028187
410   0.0964432    0.878519    -0.50172  3.5245e-06
420   0.0881985    0.877411   -0.592066  0.00031113
430   0.0902206    0.877683   -0.742673  0.00019777
440   0.0842431    0.876879   -0.201005  0.000151952
450   0.0871815    0.877274    0.129795  -7.6253e-05
460   0.0857682    0.877084    0.641171  0.000439607
470   0.0783894    0.876092   -0.291616  0.000727085
480   0.0712265    0.875129     1.21469  0.000774655
490   0.0628963    0.874009   0.0406832  -0.000224835
500   0.0757232    0.875734    0.310312  -0.000685013
510   0.0765965    0.875851    0.129971  0.000281538
520   0.0700924    0.874977    -0.23165  0.000535743
530   0.0658817     0.87441   0.0998559  0.000386851
540   0.0623554    0.873936    0.490681  0.000225656
550   0.0613686    0.873804    0.791219  0.000330503
560   0.0557454    0.873048    0.129266  0.000423647
570   0.0528956    0.872664    0.159764  0.000250571
580   0.0507339    0.872374   -0.593477  0.00044874
590   0.0439208    0.871458   -0.381992  0.000309778
600   0.0445384    0.871541   0.0390369  0.000450668
610   0.0349075    0.870246   -0.171243  0.000567686
620   0.0331847    0.870014    0.460478  -0.000387516
630   0.0426578    0.871288    0.459449  -0.000282557
640   0.0388358    0.870774    0.519709  7.85584e-05
650   0.0410866    0.871077    -0.26253  0.000184404
660   0.0351477    0.870278    0.519592  0.000219493
670   0.0366967    0.870487    -1.13573  -0.000565558
680   0.0464589    0.871799    -1.16626  0.000384922
690   0.0289983    0.869452   -0.382522  0.000842706
700   0.0296048    0.869533    0.369955  -0.000343116
710   0.0358606    0.870374    -0.44334  -0.000473101
720   0.0390668    0.870805   -0.955245  0.000303992
730   0.0297808    0.869557   -0.141891  0.000268636
740   0.0336941    0.870083    0.519739  -0.000190987
750   0.0336005     0.87007    -1.01554  9.21687e-05
760   0.0318507    0.869835    -1.58661  0.000151619
770   0.0305681    0.869663    0.851451  0.000389223
780   0.0240662    0.868788     0.27955  6.92261e-05
790   0.0291836    0.869476   0.0078926  4.62394e-05
800   0.0231414    0.868664    0.731312  0.00041447
810   0.0208942    0.868362    0.941004  4.63503e-05
820   0.0222144    0.868539    0.219495  -0.00013209
830    0.023536    0.868717    0.670376  7.0534e-05
840   0.0208038     0.86835   -0.323143  -0.000216412
850   0.0278643    0.869299    0.398806  -0.000575067
860   0.0323051    0.869896    0.669758  0.000369627
870   0.0204717    0.868305  -0.0516035  0.000333318
880   0.0256387       0.869     0.33837  -1.06394e-06
890    0.020493    0.868308    0.398307  0.000202802
900   0.0215827    0.868455     1.48279  -0.000289562
910   0.0262842    0.869087   -0.926306  0.000227673
920   0.0170292    0.867842    0.488683  0.000842108
930  0.00944207    0.866822    -0.53401  0.000614856
940  0.00473212    0.866189    0.368603  -0.000265533
950   0.0147527    0.867536   -0.143802  -0.000930375
960   0.0233396    0.868691   -0.234472  -0.000133398
970   0.0174207    0.867895   -0.565625  0.000604792
980   0.0112438    0.867064    0.157471  0.000205595
990   0.0133088    0.867342   -0.565419  -0.000206526
1000   0.0153743     0.86762   0.0369206  -0.000194667
1010   0.0172021    0.867866   -0.174358  0.000206592
1020   0.0112424    0.867064   -0.263794  0.00023102
1030   0.0125817    0.867244   -0.926659  0.000573604
1040  -0.000229646    0.865522   -0.203915  0.000109813
1050   0.0103855    0.866949    0.398454  -0.000659056
1060   0.0129515    0.867294    0.488359  -7.32605e-05
1070   0.0118507    0.867146   -0.143508  -0.000159355
1080   0.0161386    0.867723   -0.415224  -0.000282136
1090   0.0174934    0.867905  -0.0241042  0.000380312
1100  0.00853235      0.8667   -0.475396  9.76216e-05
1110    0.015541    0.867642    0.336224  -0.000258196
1120   0.0136963    0.867394    0.517182  -0.000172899
1130    0.018999    0.868107    0.306755  -4.95644e-05
1140   0.0146876    0.867527   -0.625974  0.000443974
1150   0.0101195    0.866913    0.156442  2.44941e-05
1160   0.0141977    0.867462    0.336488  -7.41471e-05
1170   0.0116024    0.867113   -0.776786  -3.54694e-07
1180   0.0142048    0.867463    0.788104  -0.000235675
1190   0.0163159    0.867746   -0.205238  -0.000261056
1200   0.0194259    0.868165    0.667671  0.000434819
1210  0.00761953    0.866577  -0.0541316  0.00059679
1220  0.00749008     0.86656     -1.2279  -0.000946955
1230   0.0265586    0.869124    0.425659  8.77574e-05
1240  0.00573493    0.866324  -0.0848937  0.000972912
1250  0.00710039    0.866507    -1.01806  2.5824e-05
1260  0.00521845    0.866254  -0.0248389  -0.000162237
1270   0.0103451    0.866944   -0.807137  0.000226454
1280  0.00068938    0.865645   -0.565831  -0.000112783
1290   0.0126008    0.867247    0.607616  -0.000539069
1300   0.0114708    0.867095   -0.476395  0.000201295
1310  0.00857491    0.866706   -0.988183  0.000289828
1320   0.0056742    0.866316    -0.59721  -0.000125795
1330   0.0110908    0.867044     1.08902  -4.97861e-05
1340  0.00666992     0.86645    0.788074  0.000632035
1350  -0.00154989    0.865344   -0.114128  6.38175e-05
1360  0.00539357    0.866278      1.0882  6.49259e-05
1370  -0.0028484     0.86517    0.938593  0.000152949
1380  0.00233458    0.865867    0.637114  -0.000709352
1390   0.0113386    0.867077   -0.898365  0.000268016
1400  -0.00302574    0.865146     0.15606  0.000330991
1410  0.00471882    0.866187     1.05938  -0.00101742
1420   0.0173227    0.867882     1.11829  0.000268725
1430  -0.000655687    0.865465    0.787898  0.000714406
1440   0.0030346    0.865961   -0.596858  -7.52111e-05
1450  0.000848536    0.865667    0.817778  -0.000178153
1460  0.00659765     0.86644    0.847806  -0.000562609
1470   0.0121007     0.86718    0.305403  0.000180369
1480  0.00299027    0.865955     0.21582  0.000218363
1490  0.00773347    0.866593   -0.055954  -0.000796422
1500   0.0189187    0.868096    0.124034  -0.000372974
1510    0.015193    0.867595   -0.597739  0.000721211
1520  0.00449449    0.866157   -0.115597  0.000232062
1530   0.0105517    0.866971   -0.205914  -5.08501e-05
1540  0.00551149    0.866294  0.00448273  0.000116507
1550  0.00822158    0.866658    0.877921  -6.39949e-05
1560  0.00679139    0.866466    0.456422  -0.000129165
1570   0.0108049    0.867005    0.275405  -0.000181145
1580   0.0104143    0.866953      0.7574  -0.000922838
1590   0.0292616    0.869487    0.304668  -0.00053346
1600   0.0210835    0.868387     1.93049  0.000388757
1610   0.0214865    0.868442   -0.116773  0.000572939
1620  0.00962472    0.866847    0.214821  2.51369e-05
1630   0.0209838    0.868374    0.214586  -0.000143528
1640   0.0124953    0.867233    0.485685  0.000679671
1650  0.00739033    0.866546     1.08794  -0.000367123
1660   0.0198377     0.86822    0.605441  -0.000275043
1670   0.0128912    0.867286   0.0947999  0.000143617
1680   0.0169654    0.867834    0.756254  -1.32999e-05
1690   0.0131572    0.867322    0.274552  -0.000171835
1700   0.0204021    0.868296    0.124004  -0.000171591
1710    0.016589    0.867783    -1.23069  0.000606344
1720  0.00827522    0.866665    0.846953  -0.000251613
1730   0.0216213     0.86846   0.0335104  -0.000264358
1740   0.0135624    0.867376     1.35733  0.000833485
1750  0.00495157    0.866219    0.906273  -3.99885e-05
1760   0.0143622    0.867484     1.23725  -0.000450713
1770   0.0139658     0.86743    0.786428  0.000239044
1780  0.00958127    0.866841     1.05723  -9.33877e-05
1790   0.0158336    0.867682     1.68845  0.00034704
1800  0.00264048    0.865908     2.11104  0.000319775
1810  0.00943808    0.866822     1.92941  -0.00031962
1820  0.00903287    0.866767     1.17717  -0.000668588
1830   0.0228098     0.86862     1.05585  2.71097e-05
1840  0.00849068    0.866694      2.3212  0.00085707
1850  0.00566843    0.866315    0.996943  -0.000174118
1860    0.011973    0.867163     1.65937  -0.000429544
1870   0.0142593     0.86747    0.123563  -0.000430763
1880   0.0205883    0.868321    0.514036  0.000417662
1890  0.00590606    0.866347     1.44826  0.000430741
1900   0.0119735    0.867163     1.35724  -0.000134396
1910  0.00859398    0.866708     1.32742  0.000257043
1920  0.00683262    0.866471     1.53843  5.45076e-05
1930  0.00750382    0.866562     1.71898  0.00029916
1940  0.000849423    0.865667    0.724992  4.13185e-05
1950  0.00667745    0.866451     0.96571  -0.000352182
1960  0.00789307    0.866614     2.20048  -0.000475783
1970   0.0161931     0.86773     1.59764  -0.000231264
1980   0.0125183    0.867236    0.634939  0.000572651
1990   0.0047401     0.86619     1.65828  0.000177621
2000  0.00896593    0.866758     1.32698  -4.01215e-05
2010  0.00554253    0.866298     1.35739  0.000342784
2020  0.00211026    0.865837      1.3266  -0.000547913
2030   0.0165008    0.867771     2.04896  -0.000781571
2040   0.0177417    0.867938     1.14599  0.000508324
2050  0.00633432    0.866404     1.35671  0.00056374
2060  0.00646687    0.866422     1.80836  -0.000330215
2070   0.0129386    0.867292    0.844836  -0.000578968
2080   0.0180462    0.867979    0.393339  -0.000207413
2090   0.0170869     0.86785     1.11623  0.000746481
2100  0.00311662    0.865972     0.30361  0.000262718
2110   0.0118325    0.867144     1.53749  1.50289e-05
2120  0.00281604    0.865931     1.17608  0.000249972
2130  0.00683306    0.866471     1.53761  -0.000277082
2140  0.00835768    0.866676     1.32657  0.000488041
2150  -0.00292776    0.865159    0.905567  0.000153902
2160  0.00527963    0.866263     1.14652  -0.000193669
2170  0.000945625     0.86568     1.89897  -9.70895e-05
2180  0.00722142    0.866524    0.483421  2.95037e-05
2190  0.000355552    0.865601    0.333519  -5.54829e-05
2200  0.00833108    0.866673     2.47052  -0.000700131
2210   0.0143582    0.867483    0.785164  9.8885e-05
2220  0.00635338    0.866407     2.07899  0.000463946
2230  0.00507925    0.866236    0.723992  -8.37896e-05
2240  0.00802917    0.866632    0.814163  -0.000394099
2250   0.0129612    0.867295    0.904979  -0.000296057
2260   0.0139503    0.867428    0.844307  0.000452442
2270   0.0039124    0.866079    0.393162  4.22938e-05
2280   0.0131044    0.867315    0.422661  -0.000197393
2290  0.00786026     0.86661    0.934566  -0.000255736
2300   0.0182191    0.868002    0.151651  -0.000369095
2310   0.0152422    0.867602     1.02462  0.00041201
2320  0.00997894    0.866894     1.26584  -0.000613282
2330   0.0275078    0.869251    0.543005  -0.000699045
2340   0.0239598    0.868774    0.573062  0.000226631
2350   0.0229752    0.868642    0.632911  0.000470596
2360   0.0145479    0.867509       1.446  0.000285062
2370    0.017274    0.867875    0.994327  -0.000215525
2380   0.0188584    0.868088     1.26566  -0.000273602
2390    0.022746    0.868611     1.14435  -0.00048997
2400   0.0286578    0.869406      0.6325  -0.000433622
2410   0.0314184    0.869777     1.14393  0.000401592
2420    0.020626    0.868326     1.41571  0.000560703
2430   0.0202044    0.868269     1.68628  -0.000507304
2440   0.0307721     0.86969     1.56558  0.000100259
2450   0.0181992       0.868     2.04784  0.000650012
2460   0.0177718    0.867942     1.29519  -0.000334693
2470    0.024893      0.8689     1.59573  -0.000262474
2480   0.0230213    0.868648      1.1137  -1.6359e-05
2490   0.0252202    0.868944    0.932743  -0.000190943
2500   0.0268402    0.869161     1.26407  -4.55523e-05
2510   0.0261313    0.869066     2.01673  0.000524173
2520   0.0163567    0.867752     1.83644  0.000349323
2530   0.0191448    0.868127     1.20402  5.79434e-05
2540   0.0151978    0.867596    0.752785  -0.00032372
2550   0.0256192    0.868997    0.632059  -0.000191364
2560   0.0190251    0.868111     1.20434  0.000248266
2570   0.0206539     0.86833    0.993239  0.000220025
2580   0.0146246    0.867519     1.68537  0.000234899
2590   0.0159559    0.867698     1.53473  0.000250792
2600  0.00960876    0.866845      1.2344  0.000813114
2610  -0.000306342    0.865512     2.10784  -0.000695853
2620   0.0235258    0.868716     2.34706  -0.000636225
2630   0.0124181    0.867222     3.22088  0.000622215
2640   0.0110815    0.867043     1.77636  -7.43688e-05
2650   0.0139055    0.867422     1.62555  1.10827e-07
2660   0.0110793    0.867042     2.07684  -0.000104693
2670   0.0159994    0.867704     2.28721  -0.000298561
2680   0.0170505    0.867845     3.37066  -7.53885e-05
2690   0.0175071    0.867907     3.06965  0.000957728
2700  -0.00210405     0.86527     2.70947  0.000329196
2710   0.0109232    0.867021      2.3175  -0.00118438
2720   0.0215836    0.868455     2.31697  -0.000255492
2730   0.0160331    0.867708     3.12962  0.000480549
2740   0.0119726    0.867162     2.55822  0.000165252
2750    0.012728    0.867264     3.21991  -0.000256711
2760   0.0171068    0.867853     2.91893  -0.000226875
2770   0.0172655    0.867874     2.61789  9.01292e-05
2780   0.0153042     0.86761     2.70791  -0.000243344
2790   0.0221324    0.868528     1.89526  -0.000410392
2800   0.0235121    0.868714     1.80465  0.000576308
2810   0.0106063    0.866979     2.88875  0.000653093
2820   0.0104502    0.866958      3.0096  0.000289983
2830   0.0048066    0.866199     2.91943  -0.000396759
2840   0.0183854    0.868025     2.10604  -0.00108457
2850   0.0264979    0.869115     2.52684  4.49982e-05
2860   0.0174854    0.867904     2.85814  0.00076468
2870   0.0112043    0.867059     2.55798  0.000551992
2880  0.00644559    0.866419     2.76897  -0.000445814
2890   0.0201206    0.868258     2.82826  -0.000599694
2900   0.0184395    0.868032     2.10628  0.00053847
2910  0.00935118     0.86681     2.31703  0.000385011
2920   0.0107393    0.866997     2.22601  -0.000231596
2930   0.0139831    0.867433     1.35333  -0.000789484
2940   0.0265289     0.86912     1.38245  3.07228e-05
2950   0.0133687     0.86735     1.89444  0.000479352
2960   0.0169419    0.867831     2.67727  -0.000140159
2970   0.0161718    0.867727     2.79779  0.000357458
2980  0.00979274    0.866869     2.94857  0.000170926
2990   0.0127533    0.867267      2.1961  0.000328265
3000  0.00322745    0.865987     3.30958  0.000171968
3010  0.00931394    0.866805     2.52722  -0.000390287
3020   0.0110332    0.867036     2.28641  -0.000407421
3030   0.0174624    0.867901     3.42951  0.000141467
3040  0.00820384    0.866656     3.33957  0.000754195
3050  0.00237847    0.865873     3.76078  0.000489016
3060  -0.00157649    0.865341     2.67742  -0.000172101
3070   0.0058205    0.866335     3.70117  -0.0005353
3080  0.00912952     0.86678     2.16572  -0.000141556
3090  0.00865161    0.866716     2.91778  0.000317292
3100  0.00278368    0.865927     2.43661  0.000635271
3110  -0.00405382    0.865008     3.36987  9.66462e-05
3120  0.000850753    0.865667     3.24932  -1.37211e-05
3130  -0.0037794    0.865045     3.49009  -0.000603817
3140   0.0129271    0.867291     2.91734  -0.000109348
3150  -0.00159245    0.865339     3.27943  0.000271385
3160  0.00749939    0.866561     2.52631  -0.000382218
3170  0.00605191    0.866366     3.39948  7.09319e-07
3180   0.0074852    0.866559      2.5866  6.5081e-05
3190  0.00475029    0.866191     3.39936  8.11074e-05
3200  0.00586306    0.866341     2.58616  0.000484162
3210  -0.00493295     0.86489     2.94801  -3.13657e-05
3220  0.00649037    0.866425     3.24749  -0.000627292
3230  0.00761288    0.866576     2.55575  0.000340478
3240  -0.000319198     0.86551     3.06812  0.000211159
3250  0.00338971    0.866009     3.54941  -0.000436149
3260  0.00840379    0.866683     3.21782  -0.000339791
3270   0.0101855    0.866922     3.12753   0.0004072
3280  0.000259792    0.865588     2.76709  0.000407554
3290  0.00203445    0.865826     3.27837  -0.000340966
3300  0.00707911    0.866505     4.60225  -0.00081553
3310    0.018345    0.868019     2.91643  0.000213486
3320  0.00280939     0.86593     3.33811  0.000359564
3330   0.0111538    0.867052     3.63885  -9.71117e-05
3340  0.00475162    0.866192     2.22462  0.00037825
3350  0.00358877    0.866035     2.61551  -0.000262341
3360  0.00999845    0.866897      3.0668   -0.000345
3370   0.0104888    0.866963     2.55504  0.000528828
3380  -0.000578104    0.865475     2.52584  0.000612085
3390  -0.00175293    0.865317     2.46543  5.15151e-05
3400  -0.00160841    0.865337     2.85687  0.000250948
3410  -0.00677188    0.864642     2.40526  -0.000313524
3420  0.00466207     0.86618     2.19427  -0.000180192
3430  -0.00316804    0.865127     2.25433  0.000101057
3440  0.00264092    0.865908     1.89259  -4.77024e-05
3450   -0.002214    0.865255     3.21723   0.0001017
3460  0.00060692    0.865634     2.73532  -0.000382905
3470  0.00544411    0.866285     3.48818  0.000253319
3480  -0.00445947    0.864953     2.64592  0.000773436
3490  -0.0100246    0.864205      3.0668  -0.000350697
3500  0.00255447    0.865896     3.15632  2.02159e-05
3510  -0.0104289    0.864151     2.58489  0.000726886
3520  -0.0119832    0.863942     3.18703  -0.000486512
3530  -0.00069869    0.865459     2.10334  -0.000504068
3540  -0.00190189    0.865297     3.81848  1.99499e-06
3550  -0.00073859    0.865453     2.01285  0.000273868
3560  -0.00737925    0.864561      3.3072  0.000630993
3570  -0.0133585    0.863757     2.79626  -0.000678119
3580  0.00618314    0.866384     2.55434  7.2263e-05
3590  -0.0148037    0.863562     2.40441  0.000359564
3600  -0.00100814    0.865417     2.64501  -0.000817082
3610  0.00153792     0.86576     1.89177  -0.000597655
3620    0.010945    0.867024     2.07234  -0.000358788
3630  0.00871367    0.866724     1.41012  -5.14043e-05
3640    0.011973    0.867163     2.40355  0.000413695
3650  0.000439785    0.865612     1.92209  0.000655288
3660  -0.00113271      0.8654     1.77125  -0.00017086
3670  0.00385698    0.866071     1.80163  -0.000810941
3680   0.0150861    0.867581     1.07929  1.86421e-05
3690  0.00348414    0.866021     1.01936  0.000589453
3700  0.00329705    0.865996     2.70477  -0.000380999
3710   0.0111041    0.867046       2.373  8.84224e-05
3720  0.00152861    0.865758     1.77172  -5.21358e-05
3730   0.0121468    0.867186     2.10187  -0.000417463
3740  0.00987786    0.866881     1.77145  0.000664531
3750  -0.00114379    0.865399     1.59058  0.000210604
3760  0.00566577    0.866315     2.49387  -0.000225922
3770  0.00337464    0.866006     2.22292  -8.69372e-05
3780  0.00740452    0.866548      1.1687  3.6597e-05
3790   0.0026427    0.865908     1.38007     0.00023
3800  0.00280451     0.86593     3.24629  -0.000175116
3810  0.00614501    0.866379      1.8011  0.000142974
3820  -5.49731e-05    0.865545     2.28297  0.000231308
3830  0.00151885    0.865757     2.10269  -8.67156e-05
3840  0.00167934    0.865779     2.88511  -0.000211624
3850  0.00575134    0.866326     1.19911  -0.000194246
3860  0.00556425    0.866301     2.58357  0.000214993
3870  0.00145147    0.865748     2.43329  -0.000106089
3880  0.00768603    0.866586     2.16192  -0.000302463
3890  0.00750072    0.866561     1.92123  0.000323321
3900   0.0012196    0.865717     2.43258  -0.000250549
3910   0.0125117    0.867235     2.85367  -0.000142132
3920  0.00406224    0.866099     2.64374  0.000216124
3930  0.00818921    0.866654      1.3493  -0.000846497
3940   0.0209922    0.868375     2.52258  -0.000360849
3950   0.0154062    0.867624     1.64996   0.0010301
3960  0.000390131    0.865605     1.65031  9.01071e-05
3970   0.0136041    0.867382     2.01176  -0.00056108
3980   0.0116117    0.867114     0.68691  -0.000127657
3990   0.0161572    0.867725     1.01783  -0.000309534
4000   0.0178024    0.867946    0.837164  -0.000146765
4010   0.0190925     0.86812    0.746406  -3.75723e-05
4020   0.0185539    0.868047      1.6499  -0.000568705
4030   0.0304666    0.869649     1.91988  0.000108904
4040   0.0163758    0.867754     1.73963  0.000584887
4050   0.0187689    0.868076     1.40836  0.000735464
4060  0.00166648    0.865777     1.25852  0.000570257
4070  0.00736373    0.866543     1.73966  -0.000884623
4080   0.0193589    0.868156     1.61884  0.000130251
4090  0.00475872    0.866193     1.98114  0.000313812
4100   0.0130827    0.867312     2.16107  1.19701e-06
4110  0.00473478    0.866189     1.58952  0.000148449
4120   0.0101137    0.866913     1.64978  -0.000557422
4130   0.0158832    0.867688      1.5899  -0.000130295
4140   0.0127196    0.867263     2.01052  0.000130051
4150   0.0132822    0.867339        1.92  0.000149691
4160   0.0097258     0.86686     1.07721  7.47678e-05
4170   0.0117868    0.867137      1.1972  -0.000112407
4180   0.0119739    0.867163     1.34775  -0.000244519
4190   0.0166772    0.867795     2.04029  0.000150888
4200  0.00895618    0.866757     1.34872  0.000433378
4210  0.00800966     0.86663     1.46877  0.000265201
4220  0.00365216    0.866044     1.83006  0.000266021
4230  0.00268925    0.865914     1.64878  -0.000245206
4240  0.00855629    0.866703     1.61879  5.87414e-05
4250  0.00151442    0.865756     1.70931  0.000114845
4260  0.00625939    0.866394      2.0404  -3.64862e-05
4270  0.00224414    0.865855      2.2508  0.000134728
4280  0.00356483    0.866032      2.1004  -0.000113138
4290  0.00450691    0.866159    0.926394  -0.0003053
4300  0.00967083    0.866853     1.70872  0.000808414
4310  -0.0116614    0.863985     1.13697  0.00144384
4320   -0.019206    0.862971     1.80007  0.000158247
4330  -0.0148263    0.863559      1.3481  -0.000361514
4340  -0.0119757    0.863943      1.6487  -0.000208033
4350  -0.0106657    0.864119     1.91909  -0.000325294
4360  -0.00546982    0.864817     1.97982  0.000683572
4370  -0.0243371    0.862281    0.625797  0.000139295
4380  -0.00825571    0.864443      1.4985  -0.000539179
4390  -0.0135535    0.863731     1.16676  0.00053069
4400  -0.0188695    0.863016     1.97985  -0.000347461
4410  -0.0066043    0.864665     2.06934  0.000338572
4420  -0.0256409    0.862105     2.34118  0.00108284
4430   -0.028261    0.861753     2.25101  -0.000111187
4440  -0.0234172    0.862404     2.37117  -0.000642697
4450  -0.0154071    0.863481     2.49093  -0.000289584
4460  -0.0176255    0.863183      2.2803  0.000439784
4470  -0.0242028    0.862299     2.19072  -0.000153016
4480  -0.0145652    0.863595     1.61814  -0.000648106
4490  -0.0112407    0.864042     1.91888  6.43717e-05
4500  -0.0158526    0.863421     1.64767  -0.000314455
4510  -0.00495157    0.864887     1.76836  0.000404096
4520  -0.0239346    0.862335     1.49827  8.31024e-05
4530  -0.00661361    0.864664      2.1291  -0.000694279
4540   -0.010049    0.864202     1.55773  0.000444683
4550  -0.0155073    0.863468     2.21986  0.000406158
4560  -0.0181721     0.86311     2.21969  -0.000317137
4570  -0.00916454    0.864321      2.2498  -9.53605e-05
4580  -0.0162649    0.863366     1.88812  0.000832443
4590  -0.0258134    0.862082     1.43748  -0.000318711
4600  -0.00989072    0.864223    0.835077  -0.000925964
4610  -0.00729413    0.864572    0.564214  -5.69016e-05
4620  -0.00875269    0.864376     1.04574  -0.000138896
4630  -0.00451622    0.864946     1.55732  0.000493405
4640  -0.0186208    0.863049     1.76825  0.000943076
4650  -0.0233777     0.86241     1.52788  4.66163e-05
4660  -0.0195531    0.862924     1.07603  -0.000116507
4670  -0.0210476    0.862723     1.16591  0.000355308
4680  -0.0266593    0.861969     1.25661  0.000315098
4690  -0.0273495    0.861876    0.865046  0.00027542
4700  -0.0321677    0.861228     1.04653  0.000213974
4710   -0.031629      0.8613     1.07612  4.98082e-05
4720  -0.0331638    0.861094    0.504247  -0.000261344
4730  -0.0264021    0.862003     1.13591  -0.000656551
4740  -0.0200328    0.862859     1.19611  -0.000180015
4750  -0.0228019    0.862487     1.04562  -0.000119079
4760  -0.0176512     0.86318     1.49683  -0.00085042
4770  -0.00579345    0.864774     2.64048  0.000152262
4780  -0.0206965     0.86277     1.73831  0.00115749
4790  -0.0289433    0.861661      1.7076  -0.000456188
4800  -0.0115727    0.863997     2.24901  -0.000265977
4810  -0.0236238    0.862377     1.55703  0.000511094
4820  -0.0217946    0.862623     1.43618  -3.54443e-05
4830  -0.0229149    0.862472     1.49671  0.000197172
4840   -0.025738    0.862092     1.61705  -0.000247889
4850  -0.0179571    0.863138     1.52618  -0.000184093
4860  -0.0220562    0.862587     2.33903  0.00109261
4870  -0.0398094    0.860201     2.15907  0.000476382
4880  -0.0315838    0.861306     1.88783  -0.000460488
4890  -0.0305996    0.861439     1.22511  0.000265733
4900  -0.0368985    0.860592     1.10524  0.000480793
4910  -0.0402155    0.860146     1.46624  -0.000184049
4920  -0.0332175    0.861087     1.43586  -0.000701173
4930   -0.026192    0.862031     2.12752  3.05677e-05
4940  -0.0338288    0.861005     1.13438  0.00111161
4950  -0.0484242    0.859042     1.19538  0.00052967
4960  -0.0444222     0.85958     1.16461  -0.000357591
4970  -0.0412724    0.860004     1.13476  7.65633e-05
4980  -0.0459535    0.859374     2.33865  0.000316206
4990  -0.0475965    0.859154     1.94756  0.000555849
