Time   Number   
ps   
0          32          38
10          33          43
20          38          38
30          35          39
40          32          38
50          31          37
60          35          35
70          35          39
80          32          44
90          34          40
100          32          38
110          32          42
120          35          39
130          34          38
140          35          43
150          36          48
160          35          39
170          35          45
180          31          43
190          35          37
200          37          43
210          35          41
220          34          44
230          33          37
240          32          36
250          31          39
260          35          41
270          36          38
280          32          40
290          36          42
300          33          41
310          34          40
320          32          40
330          32          40
340          32          36
350          32          42
360          32          40
370          34          38
380          31          39
390          31          39
400          36          40
410          34          40
420          34          42
430          29          39
440          34          38
450          32          42
460          32          38
470          32          36
480          34          40
490          33          43
500          33          41
510          31          39
520          34          42
530          32          42
540          35          39
550          34          42
560          31          41
570          33          37
580          32          46
590          34          44
600          31          39
610          35          39
620          33          39
630          31          41
640          32          38
650          31          41
660          32          34
670          31          39
680          31          33
690          34          40
700          33          35
710          35          39
720          33          43
730          33          39
740          36          38
750          34          42
760          35          41
770          32          34
780          32          40
790          33          37
800          33          41
810          33          39
820          30          44
830          34          48
840          31          43
850          33          43
860          38          46
870          34          46
880          38          44
890          33          45
900          33          45
910          35          41
920          36          46
930          33          41
940          34          44
950          36          40
960          32          46
970          34          40
980          34          44
990          31          41
1000          34          42
1010          31          45
1020          33          43
1030          35          43
1040          36          44
1050          36          50
1060          32          40
1070          36          44
1080          34          40
1090          31          39
1100          34          44
1110          35          39
1120          31          47
1130          35          43
1140          35          43
1150          36          46
1160          36          42
1170          34          44
1180          36          44
1190          32          42
1200          32          44
1210          32          40
1220          32          52
1230          32          40
1240          34          46
1250          36          44
1260          32          38
1270          32          38
1280          34          42
1290          31          41
1300          32          44
1310          35          39
1320          32          46
1330          29          39
1340          34          40
1350          34          48
1360          36          46
1370          31          49
1380          33          41
1390          35          39
1400          32          42
1410          32          42
1420          33          33
1430          35          39
1440          32          44
1450          34          42
1460          32          36
1470          32          42
1480          29          37
1490          32          44
1500          33          39
1510          36          40
1520          32          44
1530          33          45
1540          30          42
1550          34          42
1560          34          48
1570          30          40
1580          33          41
1590          32          46
1600          31          49
1610          36          46
1620          34          40
1630          37          37
1640          32          44
1650          36          42
1660          34          44
1670          32          42
1680          36          44
1690          32          44
1700          30          38
1710          36          42
1720          34          40
1730          34          46
1740          33          47
1750          34          38
1760          34          48
1770          33          41
1780          33          41
1790          30          38
1800          32          40
1810          31          37
1820          32          42
1830          30          44
1840          34          42
1850          34          40
1860          32          38
1870          30          40
1880          32          34
1890          32          36
1900          31          43
1910          31          43
1920          34          42
1930          34          42
1940          34          50
1950          30          38
1960          31          41
1970          32          42
1980          34          40
1990          32          42
2000          32          48
2010          31          35
2020          33          45
2030          32          38
2040          35          41
2050          31          43
2060          34          38
2070          33          41
2080          33          41
2090          31          43
2100          33          47
2110          32          48
2120          34          42
2130          37          49
2140          32          44
2150          32          40
2160          34          42
2170          33          49
2180          33          39
2190          32          42
2200          32          44
2210          33          39
2220          30          42
2230          31          33
2240          35          39
2250          34          42
2260          33          39
2270          33          41
2280          31          41
2290          31          39
2300          33          43
2310          30          44
2320          29          41
2330          32          38
2340          32          44
2350          33          39
2360          32          42
2370          35          39
2380          33          47
2390          32          40
2400          33          45
2410          32          44
2420          30          48
2430          31          41
2440          32          40
2450          33          43
2460          29          49
2470          31          47
2480          34          44
2490          33          53
2500          32          42
2510          35          37
2520          34          44
2530          36          42
2540          35          45
2550          37          43
2560          33          43
2570          34          38
2580          31          39
2590          33          45
2600          32          44
2610          34          42
2620          33          45
2630          31          47
2640          37          47
2650          35          43
2660          35          45
2670          36          44
2680          31          41
2690          32          44
2700          34          46
2710          33          43
2720          34          42
2730          34          46
2740          34          42
2750          32          40
2760          33          41
2770          33          41
2780          32          42
2790          33          37
2800          32          40
2810          35          41
2820          35          37
2830          34          42
2840          33          39
2850          32          42
2860          32          44
2870          32          38
2880          35          45
2890          35          45
2900          34          44
2910          35          39
2920          34          42
2930          33          41
2940          29          41
2950          33          45
2960          34          44
2970          33          49
2980          30          42
2990          36          44
3000          34          38
3010          35          39
3020          35          43
3030          34          40
3040          34          42
3050          33          41
3060          33          41
3070          37          41
3080          32          46
3090          36          42
3100          36          48
3110          31          45
3120          35          41
3130          33          39
3140          37          39
3150          32          46
3160          30          46
3170          33          39
3180          36          44
3190          36          46
3200          33          41
3210          38          44
3220          34          44
3230          35          39
3240          33          45
3250          35          47
3260          32          44
3270          35          39
3280          33          45
3290          35          43
3300          33          39
3310          33          45
3320          34          44
3330          37          45
3340          35          45
3350          35          39
3360          35          39
3370          29          35
3380          36          42
3390          36          44
3400          34          42
3410          37          49
3420          35          45
3430          35          49
3440          35          41
3450          35          37
3460          33          43
3470          34          40
3480          35          45
3490          34          42
3500          37          41
3510          33          47
3520          33          47
3530          37          41
3540          36          42
3550          32          40
3560          33          39
3570          34          44
3580          32          40
3590          35          39
3600          32          38
3610          34          40
3620          32          42
3630          32          40
3640          34          42
3650          37          41
3660          35          45
3670          34          44
3680          31          39
3690          34          44
3700          33          45
3710          36          42
3720          36          42
3730          35          39
3740          36          50
3750          35          41
3760          37          39
3770          34          42
3780          37          41
3790          37          45
3800          35          37
3810          34          44
3820          35          43
3830          34          40
3840          37          47
3850          34          42
3860          35          45
3870          37          43
3880          36          44
3890          37          45
3900          33          39
3910          35          41
3920          35          39
3930          33          41
3940          33          39
3950          33          47
3960          33          37
3970          33          41
3980          31          45
3990          34          46
4000          34          40
4010          33          41
4020          38          44
4030          32          46
4040          37          45
4050          33          41
4060          33          43
4070          33          37
4080          36          42
4090          35          43
4100          36          40
4110          35          41
4120          35          47
4130          33          39
4140          31          37
4150          32          48
4160          33          45
4170          35          39
4180          36          42
4190          35          43
4200          35          39
4210          34          42
4220          36          44
4230          34          42
4240          34          42
4250          35          39
4260          31          37
4270          31          35
4280          33          37
4290          33          43
4300          35          45
4310          34          42
4320          36          46
4330          33          39
4340          33          35
4350          33          39
4360          32          40
4370          34          38
4380          33          37
4390          35          43
4400          34          42
4410          36          44
4420          35          41
4430          32          40
4440          34          44
4450          30          38
4460          31          41
4470          33          41
4480          34          44
4490          34          48
4500          35          41
4510          33          41
4520          32          44
4530          33          41
4540          35          43
4550          34          38
4560          34          46
4570          34          42
4580          35          43
4590          34          38
4600          35          39
4610          33          39
4620          32          38
4630          35          39
4640          34          38
4650          35          41
4660          31          43
4670          34          42
4680          33          39
4690          33          41
4700          34          42
4710          31          39
4720          35          39
4730          31          43
4740          33          39
4750          35          45
4760          31          47
4770          32          42
4780          33          41
4790          33          41
4800          35          39
4810          33          45
4820          34          40
4830          34          42
4840          35          45
4850          35          47
4860          35          39
4870          36          44
4880          34          44
4890          34          46
4900          31          39
4910          33          41
4920          31          41
4930          33          39
4940          31          37
4950          32          38
4960          34          42
4970          32          44
4980          33          37
4990          34          40
5000          34          44
5010          34          44
5020          34          38
5030          36          38
5040          35          39
5050          34          46
5060          32          42
5070          35          41
5080          33          41
5090          33          45
5100          31          45
5110          34          42
5120          33          43
5130          33          43
5140          36          42
5150          34          40
5160          35          41
5170          36          44
5180          34          42
5190          35          45
5200          30          44
5210          31          43
5220          36          40
5230          35          37
5240          33          39
5250          34          42
5260          33          41
5270          32          36
5280          32          42
5290          33          41
5300          34          40
5310          34          44
5320          34          42
5330          35          37
5340          34          40
5350          34          48
5360          34          42
5370          33          43
5380          31          39
5390          35          43
5400          35          43
5410          33          45
5420          32          46
5430          32          40
5440          32          44
5450          32          42
5460          32          46
5470          31          35
5480          32          38
5490          32          38
5500          32          38
5510          32          44
5520          33          41
5530          33          39
5540          34          44
5550          33          45
5560          37          43
5570          33          47
5580          33          45
5590          34          44
5600          36          42
5610          36          40
5620          35          45
5630          34          46
5640          34          40
5650          35          41
5660          39          41
5670          34          46
5680          34          46
5690          33          43
5700          37          41
5710          36          44
5720          33          45
5730          38          42
5740          36          48
5750          37          49
5760          37          43
5770          36          44
5780          35          39
5790          39          47
5800          37          43
5810          36          42
5820          36          48
5830          37          45
5840          33          45
5850          35          41
5860          37          45
5870          36          44
5880          34          40
5890          36          48
5900          35          41
5910          37          51
5920          37          45
5930          36          42
5940          37          47
5950          36          44
5960          38          48
5970          35          39
5980          37          47
5990          36          40
6000          36          42
6010          38          50
6020          34          46
6030          34          38
6040          32          44
6050          36          50
6060          33          43
6070          34          46
6080          34          40
6090          33          43
6100          34          46
6110          35          41
6120          35          41
6130          33          47
6140          38          40
6150          34          40
6160          38          42
6170          33          37
6180          33          43
6190          37          41
6200          34          36
6210          34          40
6220          33          43
6230          33          49
6240          32          46
6250          39          39
6260          33          45
6270          35          41
6280          33          45
6290          35          47
6300          37          43
6310          30          42
6320          30          36
6330          33          41
6340          37          43
6350          36          46
6360          37          47
6370          35          47
6380          35          39
6390          36          46
6400          32          46
6410          35          45
6420          34          42
6430          34          42
6440          32          40
6450          32          38
6460          34          42
6470          31          43
6480          37          45
6490          31          43
6500          35          43
6510          33          41
6520          30          48
6530          37          45
6540          35          47
6550          33          43
6560          32          48
6570          35          43
6580          32          46
6590          32          42
6600          32          46
6610          36          42
6620          35          37
6630          33          43
6640          32          42
6650          34          46
6660          29          41
6670          37          51
6680          35          43
6690          33          45
6700          37          49
6710          35          39
6720          38          42
6730          35          43
6740          39          45
6750          33          47
6760          34          42
6770          34          42
6780          38          44
6790          35          49
6800          32          44
6810          38          46
6820          34          44
6830          34          40
6840          32          38
6850          36          44
6860          35          41
6870          37          41
6880          36          40
6890          36          44
6900          37          41
6910          38          42
6920          37          39
6930          35          39
6940          31          35
6950          31          39
6960          32          40
6970          34          42
6980          35          39
6990          33          43
7000          35          41
7010          32          40
7020          37          41
7030          34          42
7040          32          42
7050          36          40
7060          37          39
7070          32          38
7080          34          36
7090          35          45
7100          34          42
7110          36          44
7120          35          47
7130          34          38
7140          36          40
7150          38          44
7160          35          41
7170          36          44
7180          35          47
7190          35          39
7200          37          41
7210          35          45
7220          35          43
7230          36          38
7240          35          37
7250          35          45
7260          33          47
7270          36          48
7280          35          43
7290          36          42
7300          33          37
7310          37          47
7320          37          43
7330          37          47
7340          37          45
7350          34          44
7360          39          43
7370          36          40
7380          36          48
7390          37          41
7400          37          41
7410          37          49
7420          34          44
7430          35          49
7440          36          42
7450          36          46
7460          36          46
7470          39          39
7480          35          43
7490          33          47
7500          35          45
7510          37          47
7520          31          41
7530          36          42
7540          34          44
7550          37          41
7560          36          44
7570          37          45
7580          36          42
7590          35          39
7600          36          40
7610          36          44
7620          33          41
7630          34          48
7640          33          43
7650          33          41
7660          39          41
7670          36          40
7680          35          43
7690          32          44
7700          36          46
7710          33          47
7720          31          41
7730          32          40
7740          34          42
7750          32          48
7760          32          38
7770          34          38
7780          34          50
7790          35          45
7800          35          41
7810          35          43
7820          31          43
7830          35          41
7840          36          46
7850          33          39
7860          34          46
7870          36          42
7880          36          44
7890          34          46
7900          34          48
7910          34          46
7920          36          44
7930          31          37
7940          32          36
7950          38          40
7960          37          37
7970          31          39
7980          33          41
7990          32          44
8000          35          39
8010          34          46
8020          32          42
8030          35          43
8040          32          46
8050          33          45
8060          35          43
8070          31          41
8080          33          47
8090          31          43
8100          34          44
8110          38          40
8120          36          40
8130          34          44
8140          31          39
8150          31          39
8160          29          39
8170          35          39
8180          33          43
8190          32          40
8200          33          43
8210          36          42
8220          34          42
8230          32          40
8240          31          39
8250          35          35
8260          36          36
8270          34          44
8280          35          43
8290          35          37
8300          36          46
8310          35          41
8320          32          46
8330          33          41
8340          35          39
8350          30          48
8360          35          37
8370          33          49
8380          32          40
8390          34          42
8400          32          44
8410          35          45
8420          37          45
8430          38          42
8440          36          40
8450          35          43
8460          36          40
8470          39          43
8480          31          41
8490          35          45
8500          35          43
8510          38          46
8520          37          41
8530          35          41
8540          32          42
8550          37          43
8560          35          45
8570          35          43
8580          38          42
8590          37          47
8600          36          48
8610          35          47
8620          36          44
8630          34          46
8640          36          44
8650          35          45
8660          32          40
8670          38          40
8680          35          45
8690          38          42
8700          36          50
8710          35          39
8720          37          51
8730          33          45
8740          37          39
8750          33          39
8760          36          40
8770          31          43
8780          34          42
8790          33          43
8800          35          41
8810          34          40
8820          33          45
8830          31          45
8840          34          42
8850          36          46
8860          33          41
8870          34          42
8880          35          41
8890          37          47
8900          33          47
8910          33          39
8920          31          39
8930          34          44
8940          36          44
8950          33          43
8960          37          45
8970          33          49
8980          34          46
8990          30          42
9000          30          42
9010          33          51
9020          33          43
9030          33          45
9040          33          49
9050          34          44
9060          31          43
9070          35          43
9080          34          42
9090          33          39
9100          34          42
9110          34          38
9120          37          43
9130          37          47
9140          33          43
9150          34          50
9160          31          43
9170          35          41
9180          36          44
9190          37          43
9200          35          43
9210          34          44
9220          35          49
9230          35          45
9240          36          48
9250          35          43
9260          37          41
9270          34          42
9280          32          42
9290          32          46
9300          36          44
9310          34          40
9320          35          45
9330          34          38
9340          39          41
9350          36          42
9360          32          42
9370          38          48
9380          36          40
9390          37          45
9400          36          38
9410          39          43
9420          35          47
9430          39          47
9440          36          42
9450          36          48
9460          37          43
9470          34          48
9480          34          46
9490          35          41
9500          33          43
9510          35          45
9520          38          48
9530          37          41
9540          38          54
9550          36          44
9560          37          49
9570          39          49
9580          37          47
9590          32          44
9600          35          47
9610          36          48
9620          34          40
9630          37          45
9640          35          41
9650          35          51
9660          39          43
9670          37          45
9680          34          46
9690          35          47
9700          36          40
9710          37          43
9720          36          42
9730          36          42
9740          32          42
9750          35          41
9760          34          48
9770          36          44
9780          35          51
9790          36          46
9800          35          41
9810          34          44
9820          36          46
9830          36          44
9840          36          40
9850          37          47
9860          36          44
9870          33          45
9880          33          47
9890          32          42
9900          31          43
9910          35          45
9920          34          40
9930          32          48
9940          32          50
9950          36          48
9960          34          46
9970          34          46
9980          37          45
9990          33          49
10000          32          40
