Time   C(t)   
ps   
0           1           1  1.57562e-10   0.0249774
10    0.759843    0.769893    0.500685   0.0151606
20    0.696789    0.709478    0.792192  0.00534372
30    0.652968    0.667492     1.93398  0.00398798
40    0.617029    0.633057     1.11933  0.00331584
50    0.586652     0.60395   -0.469649  0.00303328
60    0.556364     0.57493   0.0828888  0.00279503
70    0.530751    0.550389    0.746215  0.00236099
80    0.509144    0.529686     1.70455  0.00218756
90       0.487    0.508469     0.48569   0.0020399
100    0.468346    0.490595     1.40662   0.0018502
110    0.449996    0.473013     0.48313  0.00169596
120    0.434427    0.458096     0.29686  0.00165758
130    0.416844    0.441249   -0.110518   0.0016742
140    0.400943    0.426013    -1.69845  0.00133586
150    0.390127     0.41565    -1.44168  0.00125853
160    0.375772    0.401896       -1.11  0.00137383
170    0.362651    0.389323    -1.92309  0.00126751
180    0.350422    0.377607    -2.10825  0.00117233
190    0.339204    0.366858    -1.81364  0.000980912
200    0.330804     0.35881    -1.59286  0.000885086
210    0.321502    0.349897    -1.81587  0.000988816
220    0.311028    0.339861   -0.893321  0.000927201
230    0.302958    0.332129   -0.893032  0.000672884
240     0.29757    0.326966    -3.18212  0.000597264
250    0.291013    0.320684    -2.85102  0.000689197
260    0.283786    0.313759    -1.19067  0.000764035
270    0.275732    0.306042    0.101435  0.000746201
280    0.268862     0.29946    -0.37901  0.000577316
290    0.264186    0.294979   -0.712205  0.000598054
300    0.256901    0.287999  -0.0115528  0.00061661
310    0.251854    0.283163   -0.233563  0.000450854
320    0.247884     0.27936    0.318867  0.000523825
330    0.241377    0.273125    -1.48974  0.000592908
340    0.236026    0.267998  -0.0873224  0.000588377
350     0.22961     0.26185    -1.12146  0.000609083
360    0.223844    0.256326     -1.4539  0.000614264
370    0.217324    0.250079    -1.82283  0.00061938
380    0.211457    0.244457    -1.15864  0.000556131
390    0.206202    0.239422     -1.4914  0.000557345
400     0.20031    0.233776    -1.27019  0.000505504
410    0.196092    0.229735   -0.753749  0.000343683
420    0.193436     0.22719    -1.41895  0.000313018
430    0.189831    0.223736    -1.30841  0.000317562
440    0.187085    0.221105    -1.60396  0.000308416
450    0.183663    0.217826    -2.00993  0.000338607
460    0.180313    0.214616    -1.64132  0.000295914
470    0.177745    0.212156    -1.45707  0.000290633
480      0.1745    0.209047    -1.64132  0.000253639
490    0.172672    0.207295    -1.97426  0.000291864
500    0.168663    0.203454    -1.67897  0.000401361
510    0.164645    0.199604    -1.64226  0.000412152
520     0.16042    0.195556    -1.34718  0.00023027
530    0.160039    0.195191    -1.05261  0.000183231
540    0.156755    0.192044    -1.75395  0.000346694
550    0.153105    0.188548    -1.49544  0.000261718
560    0.151521    0.187029    -1.20083  0.000318239
570    0.146741    0.182449    -2.56607  0.000312752
580    0.145266    0.181036    -1.75485  0.000227635
590    0.142188    0.178087   -0.905468  0.000270073
600    0.139864     0.17586     -1.7546  0.000194554
610    0.138297    0.174359    -1.90249  0.000223072
620    0.135403    0.171586    -1.34895  0.000247584
630    0.133345    0.169614     -1.5341  0.000209969
640    0.131203    0.167562    -2.30977  0.00019833
650    0.129379    0.165814    -1.79279  0.000164547
660    0.127912    0.164409    -1.90354  0.000237491
670    0.124629    0.161263     -2.1993  0.000245987
680    0.122993    0.159695    -3.23315  0.000214292
690    0.120343    0.157156    -2.64274  0.000216706
700    0.118659    0.155542    -2.08945  0.000120028
710    0.117942    0.154856     -2.2371  0.000156825
720    0.115522    0.152537    -1.05647  0.000228092
730    0.113381    0.150485    -2.75461  0.00025095
740    0.110503    0.147728    -1.20444  0.000275854
750    0.107864    0.145199    -1.94281  0.000184848
760    0.106806    0.144186    -1.94263  0.000142549
770    0.105013    0.142467    -1.35266  0.000136694
780    0.104072    0.141566     -2.9402  0.00014316
790    0.102149    0.139724    -2.38665  0.000165914
800    0.100754    0.138387    -1.94332  0.000151966
810     0.09911    0.136812    -1.61138  0.000195309
820   0.0968477    0.134644    -1.64806  0.000132121
830   0.0964676     0.13428    -1.68535  8.52857e-05
840    0.095142     0.13301    -1.39053  0.000112142
850   0.0942248    0.132131    -1.02076  2.59724e-05
860   0.0946225    0.132512   -0.873729  2.40415e-05
870   0.0937439     0.13167    -1.13216  0.000127159
880   0.0920794    0.130075   -0.615403  0.000110878
890   0.0915264    0.129545   -0.689117  1.81492e-05
900   0.0917164    0.129728   -0.283469  4.92744e-05
910   0.0905409    0.128601   -0.135823  7.62392e-05
920   0.0901916    0.128267   -0.209898  0.000128299
930   0.0879749    0.126143    0.270258  0.000105648
940   0.0880786    0.126242   0.0114267  9.14548e-05
950   0.0861458     0.12439   -0.505407  0.000237199
960   0.0833346    0.121697   -0.173221  0.000223095
970   0.0816839    0.120115  -0.0625046  0.00015067
980   0.0803212    0.118809   0.0849974  0.000159374
990   0.0784964    0.117061  -0.0995423  0.000119986
1000   0.0779215     0.11651   -0.690524  9.31162e-05
1010   0.0766341    0.115276   -0.247729  0.000107947
1020   0.0757626    0.114441     -0.3957  6.2079e-05
1030   0.0753925    0.114087   -0.617241  7.48467e-05
1040   0.0742657    0.113007   -0.432737  0.000121209
1050   0.0729683    0.111764   -0.654279  8.5694e-05
1060   0.0725518    0.111365    -0.54349  7.96199e-05
1070   0.0713759    0.110238   -0.174014  8.60881e-05
1080     0.07083    0.109715   -0.063694  7.99805e-05
1090   0.0697763    0.108706   -0.580708  4.20827e-05
1100   0.0699884    0.108909   -0.507101  4.86005e-05
1110   0.0688043    0.107774    -1.50369  9.09943e-05
1120   0.0681685    0.107165    -1.39258  4.88158e-05
1130    0.067828    0.106839     -1.4668  7.8667e-05
1140   0.0665951    0.105658    -0.72857  8.30475e-05
1150    0.066167    0.105247   -0.950256  7.05197e-05
1160   0.0651847    0.104306    -1.02372  9.83384e-05
1170   0.0642003    0.103363    -1.28205  3.24436e-05
1180   0.0645359    0.103685    -1.46709  1.97776e-05
1190   0.0638047    0.102984    -1.46669  4.54117e-05
1200   0.0636276    0.102814   -0.470388  1.34546e-05
1210   0.0635356    0.102726   -0.839467  1.99195e-05
1220   0.0632292    0.102433   -0.765644  5.42611e-05
1230   0.0624504    0.101686   -0.359527  2.64488e-05
1240   0.0627003    0.101926  0.00915591  3.30212e-05
1250     0.06179    0.101054   -0.765716  0.000114804
1260   0.0604042   0.0997257    0.563207  7.4105e-05
1270   0.0603079   0.0996335   -0.249027  9.16064e-05
1280   0.0585721   0.0979703   -0.174879  0.000169467
1290   0.0569186    0.096386    -1.09801  0.000111495
1300   0.0563422   0.0958337   -0.286028  7.28475e-05
1310   0.0554616     0.09499   -0.839719  4.91552e-05
1320   0.0553591   0.0948917   -0.323174  8.83682e-05
1330   0.0536942   0.0932966   -0.360212  0.000101512
1340   0.0533288   0.0929465   -0.507858  7.78992e-05
1350   0.0521363   0.0918038   -0.434071  9.54503e-05
1360   0.0514198   0.0911174   -0.508038  9.35243e-05
1370   0.0502658   0.0900116   -0.249531  5.44328e-05
1380   0.0503312   0.0900743   -0.102786  2.40441e-05
1390   0.0497849   0.0895508   -0.508543  3.93797e-05
1400   0.0495436   0.0893196   -0.693299  3.0723e-05
1410   0.0491704   0.0889621   -0.988555  4.47929e-06
1420    0.049454   0.0892338   -0.028711  -2.18039e-05
1430   0.0496065   0.0893799   -0.730769  3.08707e-05
1440   0.0488366   0.0886422  0.00728151  8.36914e-05
1450   0.0479327   0.0877761    0.929872  0.000125732
1460   0.0463219   0.0862328    0.228642  0.000134803
1470   0.0452366   0.0851929   0.0810324  8.87869e-05
1480   0.0445462   0.0845314   -0.767807  2.9338e-05
1490   0.0446499   0.0846307   -0.546446  6.04358e-05
1500   0.0433375   0.0833733   -0.324796  7.37874e-05
1510   0.0431741   0.0832167   -0.768059  7.62518e-05
1520   0.0418124    0.081912   -0.361762  0.000120773
1530   0.0407586   0.0809023  -0.0670102  9.88413e-05
1540   0.0398356   0.0800179   -0.251298  0.00015474
1550   0.0376638   0.0779371  -0.0302609  0.000155032
1560    0.036735   0.0770471   -0.177907  5.50596e-05
1570   0.0365627    0.076882   -0.251514  2.17242e-05
1580   0.0363005   0.0766308   -0.436162  3.29565e-05
1590   0.0359035   0.0762504   -0.436594  5.54219e-05
1600   0.0351921   0.0755687    -0.43627  8.91641e-05
1610   0.0341202   0.0745418   -0.805385  9.15978e-05
1620   0.0333601   0.0738134   -0.288696  0.000109817
1630   0.0319239   0.0724373    0.080852  8.52872e-05
1640   0.0316544   0.0721791   -0.989853  1.79794e-05
1650   0.0315643   0.0720928   -0.621134  9.01129e-06
1660   0.0314741   0.0720064   -0.252739  1.80628e-05
1670   0.0312031   0.0717467  -0.0679834  4.74892e-05
1680   0.0305243   0.0710963   -0.326274  4.75775e-05
1690   0.0302515   0.0708349    0.226948  5.4514e-05
1700   0.0294341   0.0700517   -0.105021  9.99963e-05
1710   0.0282516   0.0689187   -0.326527  9.79465e-05
1720   0.0274751   0.0681747  0.00537095  9.13839e-05
1730   0.0264239   0.0671675   -0.289921  7.56433e-05
1740   0.0259623   0.0667252   -0.363925  8.72659e-05
1750   0.0246786   0.0654952   -0.585574  0.000146783
1760   0.0230266   0.0639124    -1.72945  0.000126542
1770   0.0221478   0.0630703    -1.47087  5.13826e-05
1780    0.021999   0.0629277    -1.58202  6.07179e-05
1790   0.0209334   0.0619068    -1.61877  0.000122747
1800    0.019544   0.0605756   -0.991295  4.95289e-05
1810   0.0199428   0.0609577    -1.06537  -1.00276e-05
1820   0.0197446   0.0607677   -0.474785  -3.77181e-05
1830   0.0206972   0.0616804   -0.991547  -8.58307e-07
1840   0.0197617   0.0607842     -1.2498  3.8262e-05
1850   0.0199319   0.0609472   -0.954545  1.99377e-05
1860    0.019363   0.0604021   -0.806827  1.43312e-06
1870   0.0199033   0.0609198   -0.659433  -3.55643e-05
1880   0.0200743   0.0610836    -1.17605  -7.84192e-06
1890   0.0200601     0.06107    -1.28677  -1.94812e-05
1900   0.0204639   0.0614569   -0.364249  -9.018e-07
1910   0.0200782   0.0610873   -0.659469  5.72454e-05
1920    0.019319   0.0603599    -0.58579  2.00693e-05
1930   0.0196768   0.0607027   -0.364141  -2.64853e-05
1940   0.0198487   0.0608675   -0.364429  -1.25427e-05
1950   0.0199276   0.0609431   -0.659758  8.47625e-06
1960   0.0196792    0.060705   -0.880975  8.47643e-06
1970   0.0197581   0.0607807    -0.80726  1.78994e-05
1980   0.0193212    0.060362    -1.21356  8.13189e-05
1990   0.0181317   0.0592223    -1.10252  0.000135553
2000   0.0166101   0.0577644    -1.02844  6.75991e-05
2010   0.0167797   0.0579269    -1.02887  3.25206e-05
2020   0.0159597   0.0571412   -0.511931  3.01789e-05
2030   0.0161762   0.0573486   -0.918049  -5.12842e-06
2040   0.0160623   0.0572395   -0.770474  8.47476e-05
2050   0.0144812   0.0557246   -0.770474  5.88077e-05
2060   0.0148861   0.0561126    -1.21327  2.35034e-05
2070   0.0140111   0.0552742    -1.13952  0.000104234
2080   0.0128015   0.0541152    -1.25038  2.83791e-05
2090   0.0134436   0.0547304    -1.39806  -4.52449e-05
2100   0.0137064   0.0549822    -1.25063  -4.30042e-05
2110   0.0143036   0.0555545   -0.955158  -5.50255e-05
2120   0.0148069   0.0560366    -1.13973  -3.12681e-05
2130    0.014929   0.0561537    -1.02916  9.30945e-06
2140   0.0146207   0.0558582   -0.733797  4.51729e-06
2150   0.0148387   0.0560671   -0.807548  -5.782e-05
2160   0.0157771   0.0569662   -0.881299  -5.55213e-05
2170   0.0159491    0.057131    -0.80744  1.40471e-05
2180   0.0154961   0.0566971    -1.69332  2.84927e-05
2190   0.0153792    0.056585    -1.47196  2.37656e-05
2200   0.0150208   0.0562416   -0.733473  -5.16563e-06
2210   0.0154825    0.056684   -0.918157  -2.6889e-05
2220   0.0155586   0.0567569    -1.36128  -1.97181e-05
2230   0.0158769   0.0570619    -1.36124  -1.7328e-05
2240   0.0159052    0.057089    -1.43499  -1.73928e-05
2250   0.0162248   0.0573952     -1.2876  -2.95728e-05
2260   0.0164966   0.0576557    -1.73046  -1.26151e-05
2270   0.0164771   0.0576369    -1.76732  -3.45952e-05
2280   0.0171885   0.0583186    -1.21377  -4.92797e-05
2290   0.0174627   0.0585813    -1.17684  -1.03485e-05
2300   0.0173955   0.0585169    -1.10306  -2.01806e-05
2310   0.0178663    0.058968   -0.549257  1.65407e-05
2320   0.0170647      0.0582   -0.622684  3.61199e-05
2330   0.0171439   0.0582758   -0.659938  -2.75756e-05
2340   0.0176162   0.0587284   -0.475182  -5.71268e-05
2350   0.0182864   0.0593706   -0.622864  -1.54087e-05
2360   0.0179244   0.0590237   0.0416157  2.14625e-05
2370   0.0178572   0.0589593   -0.770655  -5.61429e-06
2380   0.0180367   0.0591313    -1.21356  -4.51638e-05
2390   0.0187604   0.0598247   -0.918337  -5.0197e-05
2400   0.0190406   0.0600932   -0.992412  -2.80526e-05
2410   0.0193215   0.0603623   -0.955446  9.09697e-06
2420   0.0188587   0.0599189   -0.807945  4.13748e-05
2430    0.018494   0.0595695   -0.955375  6.13977e-05
2440   0.0176307   0.0587423    -0.88166  9.14236e-05
2450   0.0166655   0.0578175   -0.438541   1.847e-06
2460   0.0175938   0.0587069   -0.549329  -3.29922e-05
2470   0.0173254   0.0584497   -0.844622  1.93673e-05
2480   0.0172064   0.0583358    -1.32438  2.94448e-05
2490   0.0167365   0.0578855    -1.10273  -1.81502e-05
2500   0.0175694   0.0586836   -0.844333  -8.08949e-05
2510   0.0183544   0.0594357   -0.512544  -3.83653e-05
2520   0.0183367   0.0594188   -0.807584  -1.58601e-05
2530   0.0186716   0.0597396  0.00418137  1.43802e-05
2540   0.0180491   0.0591432   -0.622936  1.68796e-05
2550    0.018334   0.0594161   -0.217035  -7.09947e-07
2560   0.0180633   0.0591568     -0.5124  1.1908e-05
2570   0.0180958   0.0591879   -0.623152  2.71688e-05
2580   0.0175199   0.0586362   -0.549474  2.46639e-05
2590   0.0176025   0.0587153   -0.660298  1.89655e-06
2600    0.017482   0.0585998   -0.217468  5.27977e-05
2610   0.0165466   0.0577035    0.410082  5.54357e-05
2620   0.0163733   0.0575375    0.520727  5.56359e-05
2630   0.0154339   0.0566374   -0.143861  4.03992e-05
2640   0.0155653   0.0567633   0.0777162  2.5228e-05
2650   0.0149293   0.0561539    0.151755  2.78087e-05
2660   0.0150091   0.0562304  -0.0329285  4.8462e-05
2670   0.0139601   0.0552253    0.115078  -3.09665e-07
2680   0.0150153   0.0562364   0.0780764  -6.70704e-05
2690   0.0153015   0.0565105    0.299365  2.03062e-05
2700   0.0146092   0.0558472    0.151755  7.9641e-05
2710   0.0137087   0.0549844   -0.438937  4.10845e-05
2720   0.0137875   0.0550599  0.00400113  3.86792e-05
2730   0.0129351   0.0542432  -0.0696417  -1.42679e-07
2740   0.0137904   0.0550627    0.151431  -5.2142e-06
2750   0.0130394   0.0543431   -0.106679  2.58393e-05
2760   0.0132736   0.0545675   -0.365114  -5.72778e-05
2770   0.0141849   0.0554407   -0.365439  -4.17571e-05
2780   0.0141087   0.0553677  0.00389307  3.11095e-05
2790   0.0135627   0.0548446   0.0773557  7.03514e-05
2800   0.0127017   0.0540196   -0.181079  3.12822e-05
2810   0.0129371   0.0542451   -0.328725  2.09649e-05
2820   0.0122824   0.0536178   -0.254794  7.08075e-05
2830   0.0115209   0.0528882   0.0406422  4.21003e-05
2840   0.0114404    0.052811    0.224785  5.80517e-05
2850   0.0103599   0.0517758    -0.10722  6.0778e-05
2860   0.0102248   0.0516464   -0.291832  2.14417e-05
2870  0.00993105   0.0513649   -0.291796  3.99838e-05
2880  0.00942516   0.0508801   0.0771754  5.86002e-05
2890  0.00875905   0.0502419   -0.217973  3.11877e-06
2900  0.00936278   0.0508204   -0.181115  -2.08924e-06
2910  0.00880084    0.050282   -0.181115  5.62724e-05
2920  0.00823733    0.049742   -0.254974  9.90013e-05
2930  0.00682081   0.0483848  -0.0702185  8.32355e-05
2940  0.00657262    0.048147   -0.586944  1.95178e-05
2950  0.00643045   0.0480108   -0.292048  4.09562e-05
2960   0.0057535   0.0473621   -0.402729  3.83586e-05
2970  0.00566328   0.0472757   -0.476624  1.17167e-05
2980  0.00551917   0.0471376    -0.62409  4.66304e-05
2990  0.00473067   0.0463821   -0.660803  1.71562e-05
3000  0.00517604   0.0468089   -0.735023  -2.3072e-05
3010  0.00519211   0.0468243  -0.0703626  1.18656e-05
3020  0.00493873   0.0465815  -0.0706148  1.72775e-05
3030  0.00484656   0.0464932   -0.550339  1.12227e-06
3040  0.00491628     0.04656   -0.218117  3.84366e-06
3050  0.00476969   0.0464195   -0.218477  3.63647e-05
3060  0.00418899   0.0458631   -0.402945  4.72956e-05
3070  0.00382378   0.0455132   -0.846064  2.57018e-05
3080  0.00367495   0.0453706   0.0766708  5.30148e-05
3090  0.00276348   0.0444973   -0.107833  7.21963e-05
3100  0.00223103   0.0439871    -0.32905  -1.21998e-05
3110  0.00300748    0.044731   -0.292589  -1.48741e-05
3120  0.00252851   0.0442721  -0.0708673  1.41835e-06
3130  0.00297911   0.0447039   -0.735419  -1.22198e-05
3140  0.00277291   0.0445063   -0.403269  6.45857e-05
3150   0.0016874   0.0434662   -0.440199  6.47103e-05
3160   0.0014787   0.0432662   -0.587773  7.59813e-05
3170  0.000167771   0.0420102   -0.144726  6.23324e-05
3180  0.000232051   0.0420718   -0.144835  1.01343e-05
3190  -3.49143e-05    0.041816    -0.21873  -3.68859e-05
3200  0.000969769   0.0427786   -0.587737  -6.73736e-05
3210  0.00131256   0.0431071   -0.624667  2.39324e-05
3220  0.000491121     0.04232   -0.403125  3.50315e-05
3230  0.000611929   0.0424357   -0.882957  -1.76636e-05
3240  0.000844392   0.0426585   -0.846172  -6.56139e-06
3250  0.000743156   0.0425615    -0.80917  1.01399e-05
3260  0.000641594   0.0424642    -1.28918  1.57594e-05
3270  0.000427968   0.0422595   -0.846136  2.13959e-05
3280  0.000213677   0.0420542    -0.69849  -2.61962e-05
3290  0.000951891   0.0427615   -0.476768  -2.6204e-05
3300  0.000737756   0.0425563   -0.735203  -9.48186e-06
3310  0.00114153   0.0429432   -0.513806  -1.79132e-05
3320  0.00109602   0.0428996    -0.80881  4.56023e-06
3330  0.00105032   0.0428558   -0.218189  -1.51951e-05
3340  0.00139992   0.0431908   -0.550699  7.41656e-06
3350  0.000901993   0.0427137   -0.513626  2.43725e-05
3360  0.000912471   0.0427237   -0.661416  -2.09087e-05
3370  0.00132017   0.0431143   -0.440127  2.45208e-05
3380  0.000422054   0.0422538   -0.255155  2.73414e-05
3390  0.000773339   0.0425904   -0.735419  -2.09314e-05
3400  0.000840683   0.0426549   -0.882921  5.03426e-05
3410  -0.000233513   0.0416257   -0.624558  5.32668e-05
3420  -0.000224653   0.0416342   -0.846316  5.92378e-05
3430  -0.00141827   0.0404905   -0.624558  4.49908e-05
3440  -0.00112447    0.040772   -0.698345  -3.22972e-05
3450  -0.000772324   0.0411094   -0.920067  -3.23923e-05
3460  -0.000476622   0.0413928   -0.698598  -2.67354e-05
3470  -0.000237615   0.0416218   -0.846352  -9.5118e-06
3480  -0.000286386    0.041575   -0.809603  -3.78322e-06
3490  -0.000161951   0.0416943    -0.80935  -8.8763e-07
3500  -0.000268634    0.041592    -1.28918  -6.70505e-06
3510  -2.78498e-05   0.0418227    -1.17857  7.81547e-06
3520  -0.000424943   0.0414423   -0.920067  7.17511e-05
3530  -0.00146287   0.0404478   -0.550915  3.40702e-05
3540  -0.00110635   0.0407894   -0.587917  1.09535e-05
3550  -0.00168194   0.0402379   -0.920067  3.42819e-05
3560  -0.00179198   0.0401324   -0.956816  5.17065e-06
3570  -0.00178535   0.0401388   -0.919851  8.12573e-06
3580  -0.0019545   0.0399767   -0.919887  -6.66402e-07
3590  -0.00177203   0.0401516   -0.956816  -3.29714e-05
3600  -0.00129507   0.0406086   -0.993998  5.21673e-06
3610  -0.00187636   0.0400516    -1.25218  2.20197e-06
3620  -0.00133911   0.0405664    -1.03093  -5.67625e-05
3630  -0.000741111   0.0411393    -1.47376  -6.65762e-06
3640  -0.00120596   0.0406939    -1.76891  2.28609e-05
3650  -0.00119833   0.0407012    -1.65815  -3.73112e-06
3660  -0.00113133   0.0407654    -1.58444  1.40913e-05
3670  -0.00148015   0.0404312    -1.62126  1.41028e-05
3680  -0.00141339   0.0404952    -1.91641  -2.75548e-05
3690  -0.000929057   0.0409593    -1.84291  2.01632e-05
