Time   C(t)   
ps   
0           1           1  2.59033e-10   0.0303621
10    0.699566    0.703479    -3.84119   0.0172901
20    0.654198    0.658702    -3.50883  0.00421815
30    0.615203    0.620215    -1.94014  0.00361905
40    0.581817    0.587263    -3.29185  0.00295678
50    0.556067    0.561849    -0.03777   0.0024658
60    0.532501     0.53859     -0.8248  0.00213525
70    0.513362      0.5197     2.42479  0.00203902
80    0.491721    0.498341     1.30342   0.0019141
90     0.47508    0.481917     2.19718  0.00181163
100    0.455488     0.46258     1.52379  0.00169719
110    0.441136    0.448415     2.19466  0.00156036
120    0.424281    0.431779     1.18244  0.00161967
130    0.408743    0.416444     1.63063  0.00151033
140    0.394074    0.401966     3.64949  0.00136687
150    0.381406    0.389462     3.76072  0.00115523
160     0.37097    0.379162     2.74509   0.0012481
170    0.356444    0.364826     1.84826  0.00135229
180    0.343924    0.352469     2.52056  0.00110035
190    0.334437    0.343105    0.610624  0.00104038
200    0.323116    0.331932     3.63995  0.000838189
210    0.317673     0.32656     2.06458  0.000794774
220    0.307221    0.316244     3.41136  0.000983746
230    0.297998    0.307141     4.87003  0.000889076
240    0.289439    0.298694     1.50055  0.000748518
250    0.283028    0.292366     1.72311  0.000681739
260    0.275805    0.285237     1.94776  0.000580339
270    0.271421     0.28091   0.0373859  0.000501692
280    0.265771    0.275334    0.374685  0.000559854
290    0.260224    0.269859    0.709571  0.000578198
300    0.254207     0.26392     -1.5381  0.000608028
310    0.248063    0.257857     0.25973  0.000615001
320    0.241907    0.251781    -0.30353  0.000547352
330    0.237116    0.247052    0.481088  0.000663552
340    0.228636    0.238682    -1.53865  0.000682006
350    0.223476     0.23359    -2.66254  0.000718168
360    0.214272    0.224506    -1.98926    0.000656
370    0.210356    0.220641    -1.54095  0.000467107
380     0.20493    0.215286    -2.44019  0.000433332
390    0.201689    0.212087    -1.09385  0.000405417
400    0.196822    0.207283    0.142254  0.000365634
410    0.194377    0.204869    0.476592  0.000343337
420    0.189955    0.200506    0.925118  0.000477425
430    0.184828    0.195445     2.49633  0.000478394
440    0.180387    0.191062   -0.198224  0.000310774
450    0.178613    0.189311   -0.984157  0.000305741
460    0.174272    0.185027      1.0358  0.000498576
470    0.168641    0.179469   -0.535961  0.000528723
480    0.163698     0.17459    -1.43488  0.000453953
490    0.159562    0.170508    -3.23172  0.000454952
500    0.154599     0.16561    -2.10838  0.000373926
510    0.152084    0.163127    -2.33456  0.00030454
520    0.148508    0.159598    -1.66106  0.000246476
530    0.147154    0.158262    -1.21242  -1.70961e-05
540     0.14885    0.159936    -1.21483  0.000171104
550    0.143732    0.154884   -0.315919  0.000259369
560    0.143663    0.154816   -0.878961  0.000207181
570    0.139588    0.150795   -0.204583  0.000278155
580      0.1381    0.149325   -0.654205  0.000290686
590    0.133775    0.145057    -2.33774  0.000326613
600    0.131567    0.142878   -0.991722  0.000345168
610    0.126871    0.138243    -2.56271  0.000316159
620    0.125244    0.136637  -0.0936848  0.000109531
630    0.124681    0.136081    -2.34004  0.000145425
640    0.122336    0.133767    -2.00252  0.000210984
650    0.120461    0.131916    -2.33982  0.000175783
660     0.11882    0.130297    -3.12553  0.000104738
670    0.118366    0.129849    -1.77864  0.000212293
680    0.114574    0.126106   -0.655082  0.000194672
690    0.114473    0.126006   0.0175415  0.000111682
700    0.112341    0.123902    0.690275  0.000291171
710    0.108649    0.120259      2.2628  0.000315651
720    0.106028    0.117671    0.578062  0.000196562
730    0.104718    0.116379    0.577623  0.000119083
740    0.103646     0.11532     1.81164  0.000137363
750    0.101971    0.113667     1.92397  0.000161675
760    0.100412    0.112129     3.27075  0.000180086
770   0.0983691    0.110112    0.913496  0.000264786
780   0.0951166    0.106902     2.26159  0.000150713
790   0.0953548    0.107137     3.38384  -5.73434e-06
800   0.0952313    0.107015     1.92397  0.000115107
810   0.0930527    0.104865      1.9243  0.000187847
820   0.0914744    0.103307     4.84316  9.1381e-05
830   0.0912251    0.103061     5.06814  5.52736e-05
840   0.0903689    0.102216       4.169  -4.17646e-05
850   0.0920604    0.103886     3.27042  1.90515e-05
860   0.0899879     0.10184     3.27097  0.000152726
870   0.0890059    0.100871     2.26017  5.56789e-05
880   0.0888743    0.100741     2.37315  7.07284e-06
890   0.0888644    0.100731     3.27064  2.54024e-05
900   0.0883663     0.10024     4.39376  -8.45514e-05
910   0.0905554      0.1024     2.59593  1.32851e-05
920   0.0881006   0.0999775     3.15788  9.26651e-05
930   0.0887021    0.100571     3.83072  8.69054e-05
940   0.0863624    0.098262     3.38198  9.3073e-05
950   0.0868407    0.098734     3.26899  6.27149e-05
960   0.0851081   0.0970241     2.70727  0.000111938
970   0.0846019   0.0965244     3.26834  5.68368e-05
980   0.0839714   0.0959021     3.49287  0.000143256
990   0.0817368   0.0936966     3.15601  0.000124974
1000   0.0814719   0.0934352     3.04314  9.44711e-05
1010   0.0798474   0.0918318     3.04314  0.000131711
1020   0.0788377   0.0908353     3.82918  0.000119659
1030   0.0774542   0.0894698     3.26757  0.00021289
1040   0.0745799    0.086633     3.04259  0.000238103
1050   0.0726921   0.0847698     3.37989  0.000157926
1060   0.0714214   0.0835156     3.82842  5.87989e-05
1070   0.0715162   0.0836091     3.15415  9.63673e-05
1080    0.069494   0.0816133     2.14401  0.000108934
1090   0.0693375   0.0814588     3.26713  2.81528e-05
1100    0.068931   0.0810576     3.15415  -9.28491e-06
1110   0.0695232   0.0816421     4.16462  9.51588e-06
1120   0.0687407   0.0808698     2.14379  5.32914e-05
1130   0.0684574   0.0805901     4.50148  -2.80552e-05
1140   0.0693018   0.0814236     2.81685  1.58776e-05
1150   0.0681398   0.0802767     3.60333  5.34989e-05
1160   0.0682318   0.0803675     4.16418  -9.21078e-06
1170    0.068324   0.0804585     4.27618  0.000104119
1180   0.0661494   0.0783123     4.50137  9.16168e-05
1190   0.0664917   0.0786501     4.16418  -1.53273e-05
1200    0.066456   0.0786148     4.61314  3.5166e-05
1210   0.0657884   0.0779559     4.50082  0.000136424
1220   0.0637275   0.0759219      6.2969  0.000117658
1230   0.0634352   0.0756334     4.83724  0.000118026
1240    0.061367   0.0735921     4.27574  0.000175324
1250   0.0599287   0.0721726     5.06145  0.000182117
1260   0.0577246   0.0699972     4.83757  5.52451e-05
1270   0.0588238   0.0710821     5.17388  4.60707e-06
1280   0.0576325   0.0699063     3.93888  9.37618e-05
1290   0.0569486   0.0692313     4.38751  4.93154e-05
1300   0.0566462   0.0689328     3.93811  6.2233e-05
1310   0.0557039   0.0680028     5.17334  -8.04588e-06
1320   0.0568071   0.0690916     5.17279  -2.71654e-05
1330   0.0562472   0.0685391     4.83582  3.68115e-05
1340   0.0560709    0.068365     5.28544  -8.02819e-06
1350   0.0564078   0.0686975     4.49907  0.000120553
1360   0.0536598   0.0659853     4.94946  -3.38092e-05
1370    0.057084   0.0693649     4.61172  -0.000143069
1380   0.0565212   0.0688094     3.93833  8.21497e-05
1390    0.055441   0.0677433      5.0609  0.000101686
1400   0.0544875   0.0668022     3.26417  1.78747e-05
1410   0.0550835   0.0673905     3.93789  1.15324e-05
1420   0.0542568   0.0665746     2.02982  0.000102208
1430   0.0530393   0.0653729     3.15294  -1.39195e-06
1440   0.0542846    0.066602     2.14203  -4.02272e-05
1450   0.0538439    0.066167     2.70299  5.71365e-05
1460   0.0531419   0.0654742     2.59089  0.000128878
1470   0.0512663    0.063623      2.9283  7.6961e-05
1480   0.0516027    0.063955     3.15272  9.68536e-05
1490   0.0493292   0.0617112     4.49994  5.77193e-05
1500   0.0504483   0.0628157     3.04073  -8.23289e-07
1510   0.0493457   0.0617274     2.47966  3.17929e-05
1520   0.0498125   0.0621881       2.479  -1.39421e-05
1530   0.0496245   0.0620026      2.0296  6.47707e-05
1540    0.048517   0.0609095     2.92786  0.000124027
1550    0.047144   0.0595544     2.81597  6.50765e-05
1560   0.0472155    0.059625     2.14214  0.000104848
1570    0.045047   0.0574847     2.14138  7.85787e-05
1580   0.0456439   0.0580739     1.91695  3.9305e-05
1590   0.0442609   0.0567089      3.4886  0.000151687
1600   0.0426102   0.0550796     1.91706  9.24516e-05
1610   0.0424119   0.0548839     1.80452  -3.31711e-05
1620   0.0432736   0.0557344     2.02829   6.635e-05
1630   0.0410849   0.0535742    0.906041  3.97518e-05
1640   0.0424786   0.0549497     1.35489  -6.50156e-06
1650   0.0412149   0.0537025     1.35566  -1.6205e-08
1660   0.0424789   0.0549501     1.46744  -6.53099e-06
1670   0.0413456   0.0538315     2.36558  -1.33673e-05
1680   0.0427463   0.0552139     1.91585  -1.99309e-05
1690   0.0417442   0.0542249    0.905274  0.000127096
1700   0.0402043   0.0527051     1.46667  6.70709e-05
1710   0.0404028   0.0529009     1.35413  1.36733e-05
1720   0.0399309   0.0524352     2.47681  0.000154706
1730   0.0373086   0.0498471     3.15097  6.08103e-05
1740   0.0387147   0.0512348     2.58903  -4.65166e-05
1750    0.038239   0.0507653     2.13951  0.000195917
1760   0.0347963   0.0473675    0.905712  0.000128725
1770   0.0356645   0.0482244     1.35479  -1.93523e-05
1780   0.0351834   0.0477495     1.80309  -1.27163e-05
1790   0.0359188   0.0484754     1.46601  3.47408e-05
1800   0.0344886   0.0470638    0.568194  0.000122855
1810   0.0334617   0.0460503    0.343767  0.00012318
1820   0.0320249   0.0446322    0.905164  7.58695e-05
1830   0.0319443   0.0445527     1.24191  5.57167e-05
1840   0.0309106   0.0435324     2.14017  4.21654e-05
1850    0.031101   0.0437203      1.9153  5.59921e-05
1860   0.0297908   0.0424272     1.57855  0.000124355
1870   0.0286139   0.0412657     1.46645  3.57482e-05
1880   0.0290758   0.0417215     1.24137  -5.1558e-06
1890    0.028717   0.0413674     1.57823  2.22089e-05
1900   0.0286316   0.0412831     1.35358  -1.89118e-05
1910   0.0290953   0.0417407     2.02686  3.60662e-05
1920   0.0279103   0.0405712     2.36372  5.67024e-05
1930   0.0279612   0.0406215      2.7008  -5.09955e-06
1940   0.0280123   0.0406719     2.13897  1.78665e-06
1950   0.0279255   0.0405862     1.80189  8.69129e-06
1960   0.0278385   0.0405003    0.230128  5.02137e-05
1970   0.0269212    0.039595    0.454665  4.33611e-05
1980   0.0269713   0.0396444     1.57746  -2.58107e-05
1990   0.0274374   0.0401045     1.12795  -6.05622e-05
2000   0.0281825   0.0408398    0.341794  7.13797e-05
2010   0.0260098   0.0386955    0.229799  8.52962e-05
2020   0.0264766   0.0391561    -1.22996  -7.46076e-05
2030    0.027502   0.0401682   -0.444359  -7.47607e-05
2040   0.0279718   0.0406319   -0.893433  2.2826e-05
2050   0.0270455   0.0397176   -0.443811  -5.18495e-06
2060   0.0280755   0.0407342    0.678434  -1.90823e-05
2070   0.0274271   0.0400943   0.0047145  8.81534e-06
2080   0.0278992   0.0405602    -0.10739  -5.42879e-05
2090   0.0285129   0.0411659   -0.669334  -5.4417e-05
2100   0.0289875   0.0416344   -0.444798  -5.28591e-06
2110   0.0286186   0.0412703   -0.332475  2.98899e-05
2120   0.0283897   0.0410444  0.00449498  7.93751e-05
2130   0.0270311   0.0397034  0.00449496  9.36388e-05
2140   0.0265169    0.039196    0.565892  5.85551e-05
2150     0.02586   0.0385476   -0.444578  0.000143708
2160   0.0236428   0.0363593    0.116709  0.000108507
2170   0.0236899   0.0364057   -0.107828  3.79044e-05
2180   0.0228847   0.0356111   -0.444798  5.21708e-05
2190   0.0226464   0.0353759   -0.557011  1.67368e-05
2200     0.02255   0.0352807    -0.55734  5.95674e-05
2210   0.0214551      0.0342   -0.893542  -4.59459e-06
2220   0.0226419   0.0353714   -0.107938  -7.59425e-05
2230   0.0229739   0.0356991    -1.00652  -4.61824e-06
2240   0.0227342   0.0354625   -0.781658  7.41672e-05
2250   0.0214906   0.0342351     -0.8942  8.14688e-05
2260   0.0211049   0.0338544    -1.23106  6.73655e-05
2270   0.0201433   0.0329053    -1.23128  6.75024e-05
2280   0.0197548   0.0325219    -1.90467  4.61026e-05
2290   0.0192212   0.0319953    -1.45549  2.93413e-06
2300   0.0196961    0.032464    -1.23139  3.18973e-05
2310   0.0185833   0.0313657    -2.12943  0.000125894
2320   0.0171782   0.0299789    -1.45549  2.48225e-05
2330   0.0180868   0.0308757    -1.68046  -1.84677e-05
2340   0.0175476   0.0303435    -1.45538  9.02968e-05
2350   0.0162809   0.0290933    -1.00674  5.4136e-05
2360   0.0164649   0.0292748    -1.11896  -1.11432e-05
2370   0.0165038   0.0293132     -1.4556  1.79742e-05
2380   0.0161054     0.02892    -1.79268  -2.57985e-05
2390   0.0170197   0.0298225    -1.79268  -8.42458e-05
2400   0.0177903    0.030583    -1.56825  -7.71586e-05
2410   0.0185629   0.0313455    -2.24175  3.98774e-05
2420   0.0169928   0.0297958    -2.69071  7.65125e-05
2430   0.0170327   0.0298352    -2.46629  -1.13403e-05
2440   0.0172196   0.0300197    -2.01754  1.07093e-05
2450   0.0168185   0.0296238    -2.80348  7.69955e-05
2460   0.0156797   0.0284998    -2.46629  0.000121408
2470   0.0143903   0.0272273    -2.69082  4.04752e-05
2480   0.0148702   0.0277009    -3.36465  -1.84653e-05
2490   0.0147596   0.0275918    -2.80348  3.6635e-06
2500   0.0147969   0.0276286    -2.01787  -1.85636e-05
2510   0.0151309   0.0279582    -2.46684  2.59595e-05
2520   0.0142777   0.0271161    -1.90522  5.56905e-05
2530   0.0140171   0.0268589     -1.6809  -1.11286e-05
2540   0.0145003   0.0273358     -1.4568  3.80264e-06
2550    0.013941   0.0267838   -0.894967  8.58612e-05
2560    0.012783    0.025641    -2.01732  7.11011e-05
2570    0.012519   0.0253803    -1.56869  7.13536e-05
2580    0.011356   0.0242325    -2.01776  9.3972e-05
2590   0.0106396   0.0235254     -1.5688  -3.3184e-06
2600   0.0114223    0.024298     -2.1303  -4.83203e-05
2610    0.011606   0.0244792    -1.68123  1.17168e-05
2620    0.011188   0.0240667    -1.68145  -3.35107e-05
2630   0.0122762   0.0251407   -0.895516  -4.10461e-05
2640   0.0120089   0.0248769    -1.12016  5.69889e-05
2650   0.0111364   0.0240158    -1.00828  4.19688e-05
2660   0.0111695   0.0240485    -1.34514  4.97222e-05
2670    0.010142   0.0230343    -1.45735  6.49604e-05
2680  0.00987034   0.0227662    -1.23281  3.47975e-05
2690    0.009446   0.0223474    -1.90653  7.29249e-05
2700  0.00841184   0.0213267    -1.68156  8.0702e-05
2710  0.00783196   0.0207544    -1.23303  4.66113e-06
2720  0.00831862   0.0212347    -1.23303  2.00272e-05
2730  0.00743142    0.020359    -1.00894  8.88421e-05
2740  0.00654178    0.019481    -1.00839  0.000135052
2750  0.00473037   0.0176932    -0.44721  0.000112346
2760  0.00429485   0.0172633   -0.896612  2.05667e-05
2770  0.00431904   0.0172872   -0.896722  5.91199e-05
2780  0.00311245   0.0160963   -0.784508  9.00125e-05
2790  0.00251879   0.0155104   -0.447758  6.71626e-05
2800   0.0017692   0.0147706   -0.671966  0.000152312
2810  -0.00052746   0.0125038   -0.447319  5.98008e-05
2820  0.000573186   0.0135901   -0.447648  -4.04993e-05
2830  0.000282526   0.0133032   -0.335435  -1.92285e-06
2840  0.000611643   0.0136281   -0.897051  -2.51896e-05
2850  0.000786318   0.0138005    -0.22366  2.14033e-05
2860  0.000183577   0.0132056   -0.223441  6.03585e-05
2870  -0.000420851    0.012609   -0.560191  5.92131e-06
2880  6.51508e-05   0.0130887   -0.672514  6.01492e-06
2890  -0.00054115   0.0124903   -0.447648  4.5069e-05
2900  -0.000836229   0.0121991    -1.00894  3.73844e-05
2910  -0.00128884   0.0117524   -0.559643  6.10135e-05
2920  -0.0020565   0.0109947    -1.23314  1.40274e-05
2930  -0.00156939   0.0114755   -0.559423  -8.02488e-05
2940  -0.000451522   0.0125788    -0.78396  -0.000127702
2950  0.000984655   0.0139962   -0.896393  -4.91483e-05
2960  0.000531445   0.0135489   -0.222673  -1.78189e-05
2970  0.00134103    0.014348   -0.222783  2.17816e-05
2980  9.58135e-05    0.013119   -0.671527  2.96198e-05
2990  0.000748639   0.0137633   -0.896174  -3.36381e-05
3000  0.000768575    0.013783   -0.896283  2.97884e-05
3010  0.00015287   0.0131753    -1.79476  1.39137e-05
3020  0.000490301   0.0135083    -1.68266  2.99597e-05
3030  -0.000446324   0.0125839    -1.90697  8.5816e-05
3040  -0.00122602   0.0118144    -2.01897  2.21401e-05
3050  -0.000889127   0.0121469    -1.90708  -1.72497e-06
3060  -0.00119152   0.0118484    -1.34591  1.42534e-05
3070  -0.00117419   0.0118655    -1.23358  3.83964e-05
3080  -0.00195945   0.0110905   -0.447758  3.04122e-05
3090  -0.00178244   0.0112652   -0.335435  2.25199e-05
3100  -0.00240985   0.0106459    -0.78407  7.89553e-05
3110  -0.00336155  0.00970664    -1.12082  2.26518e-05
3120  -0.00286288   0.0101988    -1.23303  -1.43151e-06
3130  -0.00333292   0.0097349    -1.23314  -9.60291e-06
3140  -0.00267082   0.0103884    -1.90697  -3.3873e-05
3150  -0.00265545   0.0104035    -2.24383  -1.53899e-06
3160  -0.00264004   0.0104187    -2.13162  1.47212e-05
3170  -0.00294988   0.0101129    -1.68266  -3.41239e-05
3180  -0.00195757   0.0110923    -2.13173  -4.22845e-05
3190  -0.00210419   0.0109476     -2.0193  -1.65213e-06
3200  -0.00192452   0.0111249    -1.90708  3.10864e-05
3210  -0.00272592    0.010334    -1.57011  4.74892e-05
3220  -0.00287431   0.0101875    -1.57033  -9.75091e-06
3230  -0.0025309   0.0105265    -1.79487  -3.43918e-05
3240  -0.00218647   0.0108664     -2.0193  -3.44937e-05
3250  -0.00184102   0.0112074    -1.79476  -1.81147e-05
3260  -0.00182418    0.011224    -2.01919  -2.64462e-05
3270  -0.0013121   0.0117294    -1.79465  6.57244e-06
3280  -0.00195563   0.0110942    -2.58025  -1.8326e-05
3290  -0.000945578   0.0120911    -2.13118  -9.28661e-05
3300  -9.83056e-05   0.0129274    -1.56989  -6.82491e-05
3310  0.000419405   0.0134383    -1.90697  6.35367e-06
3320  -0.000225379    0.012802    -2.58003  4.79215e-05
3330  -0.000539025   0.0124924    -2.58003  -4.36459e-05
3340  0.000647538   0.0136635    -2.91689  -1.86078e-05
3350  -0.000166868   0.0128597    -2.80435  3.13745e-05
3360  2.00489e-05   0.0130442    -3.14132  -4.38518e-05
3370  0.000710168   0.0137253    -2.58014  -3.55564e-05
3380  0.000731177   0.0137461    -2.35572  3.99094e-05
3390  -8.80192e-05   0.0129375    -2.01897  1.47209e-05
3400  0.000436759   0.0134555    -1.68211  -1.98871e-06
3410  -4.8245e-05   0.0129768    -1.68178  6.36863e-06
3420  0.000309386   0.0133298      -1.682  -4.4271e-05
3430  0.000837175   0.0138507    -2.01875  -3.59254e-05
3440  0.00102789   0.0140389    -1.90631  -4.45406e-05
3450  0.00172799   0.0147299    -2.58036  -2.76526e-05
3460  0.00158095   0.0145848    -2.46793  -5.33197e-05
3470  0.00279438   0.0157824    -2.69236  -4.48604e-05
3480  0.00247815   0.0154703    -2.46793  4.02024e-05
3490  0.00199033   0.0149888     -2.4676  -2.4114e-06
3500  0.00252638   0.0155179     -2.3555  -1.94561e-05
3510  0.00237945   0.0153729    -2.46793  -1.09977e-05
3520  0.00274634    0.015735    -2.13118  1.47619e-05
3530  0.00208422   0.0150815    -2.01875  3.19233e-05
3540  0.00210787   0.0151048    -2.24383  3.20753e-05
3550  0.00144271   0.0144483    -1.79476  3.21215e-05
3560  0.00146544   0.0144708     -1.3458  3.2275e-05
3570  0.000797209   0.0138112    -1.34601  4.96247e-05
3580  0.000472945   0.0134912    -1.68276  2.38117e-05
3590  0.000320975   0.0133412     -1.2338  6.54263e-06
3600  0.000342093    0.013362    -1.00948  -6.29596e-05
3610  0.00158017    0.014584   -0.784947  4.14061e-05
3620  -0.00048603   0.0125447    -1.12137  5.87155e-05
3630  0.000405856    0.013425    -1.00937  -9.80616e-05
3640   0.0014752   0.0144804   -0.672514  -7.21163e-05
3650  0.00184818   0.0148485   -0.784947  -2.31406e-06
3660  0.00152148   0.0145261    -0.89716  -2.37672e-06
3670  0.00189572   0.0148954    -1.12181  -1.11171e-05
3680  0.00174383   0.0147455   -0.448416  1.52126e-05
