Time   C(t)   
ps   
0           1           1  1.9641e-10   0.0388424
10    0.620499    0.622175    0.530505   0.0226763
20    0.546474    0.548478    0.782022  0.00651012
30    0.490296    0.492548    -2.11318  0.00528301
40    0.440814    0.443284   -0.456037   0.0043106
50    0.404084    0.406716    0.237802  0.00348241
60    0.371166    0.373943   -0.730283  0.00323033
70    0.339477    0.342395    -2.83171  0.00277403
80    0.315685    0.318708    0.664232  0.00240329
90    0.291412    0.294542    0.312271  0.00227373
100    0.270211    0.273434    -2.05332  0.00203546
110    0.250702    0.254012    -2.31885  0.00179649
120    0.234281    0.237663    -1.18593  0.00169593
130    0.216784    0.220243     -2.5866  0.00135979
140    0.207085    0.210587    -2.76519  0.00123229
150    0.192138    0.195707   -0.754294   0.0013261
160    0.180563    0.184182     1.52017  0.000927323
170    0.173592    0.177242     2.91699  0.000898869
180    0.162586    0.166285     1.95377  0.00111485
190    0.151295    0.155043     4.05187  0.00099886
200    0.142608    0.146396     3.00085  0.000873914
210    0.133816    0.137642    0.900282  0.000722139
220    0.128166    0.132017     1.24831  0.000490983
230    0.123997    0.127866     2.47296  0.000597575
240    0.116214    0.120118    0.110442  0.000598619
250    0.112024    0.115947      2.5581  0.000463455
260    0.106945     0.11089     2.73233  0.000517281
270    0.101679    0.105647     3.43121  0.000438868
280   0.0981676    0.102151    0.543792  0.00032496
290   0.0951794   0.0991762     3.51765  0.000325663
300   0.0916544   0.0956667  -0.0700244  0.000344005
310   0.0882993   0.0923265     3.51653  0.000264926
320   0.0863558   0.0903915     1.15359  0.000403126
330   0.0802368   0.0842995   0.0170898  0.000528136
340   0.0757931   0.0798755     1.67833  0.000351436
350   0.0732081   0.0773019     2.46458  0.000187548
360   0.0720422   0.0761411     2.98829  0.00024149
370   0.0683783   0.0724934     1.41391  0.000326614
380   0.0655099   0.0696377     1.76399  0.000246959
390   0.0634391   0.0675761  -0.0742117  0.000256455
400   0.0603808   0.0645312    0.975861  0.00017639
410   0.0599113   0.0640638    0.362556  0.000185853
420   0.0566637   0.0608306    0.537042  0.000325106
430   0.0534092   0.0575904    0.536615  0.000321298
440   0.0502377    0.054433     1.58694  0.000303996
450   0.0473293   0.0515374   0.0994191  0.000277661
460   0.0446845   0.0489043   0.0980517  0.000255744
470   0.0422144   0.0464451     2.19768  0.00023375
480   0.0400095   0.0442499    0.797958  0.000247794
490   0.0372585   0.0415111    0.534393  0.000198597
500   0.0360376   0.0402955     1.67175  0.000181007
510   0.0336384   0.0379069     1.67149  0.000222067
520   0.0315962   0.0358738     1.84658  0.000113801
530   0.0313624    0.035641     1.84581  6.87723e-05
540   0.0302208   0.0345045     1.05793  0.000164232
550   0.0280777   0.0323709     1.75801  0.000100885
560   0.0282031   0.0324957     2.10775  7.39148e-05
570   0.0265994   0.0308991     2.28335  9.6759e-05
580   0.0262679    0.030569     1.75664  6.96681e-05
590   0.0252061   0.0295119     1.40648  0.000119996
600    0.023868   0.0281797    0.794027  3.34058e-05
610    0.024538   0.0288467    0.969025  0.000102208
620   0.0218238   0.0261446     1.58173  0.000189263
630   0.0207527   0.0250782     2.19418  0.000102645
640   0.0197709   0.0241008     2.45621  3.4024e-05
650   0.0200722   0.0244007     2.36867  5.25435e-05
660   0.0187201   0.0230545     2.10578  9.85626e-05
670    0.018101   0.0224382     2.63112  2.05376e-05
680   0.0183093   0.0226456     3.94296  9.8986e-05
690   0.0161212   0.0204672     3.50568  8.98417e-05
700   0.0165125   0.0208567     3.50551  1.16448e-05
710   0.0158884   0.0202353     2.45569  -1.6131e-05
720   0.0168351   0.0211779     2.63103  -4.38562e-05
730   0.0167655   0.0211086     2.36858  -4.40061e-05
740   0.0177152   0.0220541     2.19341  -0.000104357
750   0.0188526   0.0231865    0.881056  -2.09747e-05
760   0.0181347   0.0224718     2.71883  2.53731e-05
770   0.0183451   0.0226813     1.75605  2.54788e-05
780   0.0176252   0.0219644     2.36875  -3.97493e-05
790   0.0191401   0.0234727    0.443177  -3.50493e-05
800   0.0183261   0.0226623    0.968512  4.87997e-05
810   0.0181641   0.0225011     1.75605  -4.92268e-05
820   0.0193107   0.0236425    0.880543  2.21543e-06
830   0.0181198   0.0224569     1.84367  0.00011453
840   0.0170201    0.021362  0.00615237  2.09847e-05
850   0.0177001   0.0220391    0.355721  2.11282e-05
860   0.0165975   0.0209414   -0.431812  0.000115083
870   0.0153985   0.0197476    0.968683  4.00425e-05
880   0.0157967    0.020144    0.968256  1.19549e-05
890   0.0151594   0.0195096   -0.431812  3.07871e-05
900   0.0151809    0.019531  0.00538316  -3.52029e-05
910   0.0158634   0.0202105    -1.04554  2.14705e-05
920   0.0147515   0.0191035    -2.62001  4.03438e-05
930   0.0150566   0.0194072   -0.432838  3.1038e-05
940   0.0141308   0.0184855    -1.22029   5.949e-05
950   0.0138668   0.0182227   -0.870802  6.91526e-05
960   0.0127477   0.0171085   -0.608263  2.72566e-06
970   0.0138123   0.0181684   -0.871144  4.09136e-05
980   0.0119294   0.0162939    -1.22071  0.000131335
990   0.0111855   0.0155533   -0.870802  1.72541e-05
1000   0.0115844   0.0159503    0.266214  4.59973e-05
1010   0.0102656   0.0146374    -0.60869  6.03403e-05
1020   0.0103775   0.0147489   -0.959027  1.27133e-05
1030   0.0100113   0.0143843    -1.22165  7.92574e-06
1040    0.010219    0.014591   -0.959199  -1.12041e-05
1050   0.0102354   0.0146074   -0.171836  -2.08403e-05
1060   0.0106358    0.015006   -0.959369  3.16272e-06
1070   0.0101722   0.0145444   -0.784542   4.642e-05
1080  0.00970744   0.0140817    -1.39631  7.9934e-06
1090   0.0100123   0.0143852    -1.48419  -1.12327e-05
1100  0.00993209   0.0143054    -2.35901  4.66464e-05
1110  0.00907936   0.0134564    -1.74665  3.70429e-05
1120  0.00919123   0.0135678     -2.2713  -6.36196e-06
1130   0.0092066   0.0135831    -2.09673  3.23664e-05
1140  0.00854391   0.0129233    -1.74699  5.17976e-05
1150  0.00817065   0.0125517    -3.14637  5.19309e-05
1160  0.00750529   0.0118893    -2.09656  3.74517e-05
1170  0.00742162    0.011806    -2.44655  -1.10849e-05
1180  0.00772699     0.01211    -2.62155  -6.217e-06
1190  0.00754596   0.0119298    -2.53426  2.78771e-05
1200  0.00716944   0.0115549   -0.959369   3.519e-06
1210  0.00747558   0.0118597    -2.18401  -3.06479e-05
1220   0.0077824   0.0121652    -2.00927  -1.60382e-05
1230  0.00779634   0.0121791    -1.74656  -2.09903e-05
1240  0.00820221   0.0125831    -1.48419  -2.10157e-05
1250  0.00821665   0.0125975    -1.30936  -1.12659e-05
1260  0.00842753   0.0128075    -1.39691  3.46624e-06
1270  0.00814733   0.0125285   -0.872084  3.44603e-06
1280  0.00835861   0.0127388    -1.22191  -2.11522e-05
1290  0.00857037   0.0129497    0.265787  3.30574e-05
1300  0.00769746   0.0120806     1.05306  0.00012196
1310  0.00613117   0.0105212     1.31612  8.26494e-05
1320  0.00604447   0.0104349    0.178672  -4.57659e-05
1330  0.00704649   0.0114325  0.00307629  -2.59873e-05
1340  0.00656422   0.0109524  -0.0843801  4.82834e-05
1350  0.00608082   0.0104711   -0.347261  3.84617e-05
1360  0.00579498   0.0101865   -0.259891  7.83431e-05
1370  0.00451396  0.00891117   -0.522174  1.87265e-05
1380  0.00542045  0.00981366   -0.172862  -1.10079e-05
1390  0.00473412  0.00913035   -0.435059  4.87538e-05
1400  0.00444538  0.00884289   -0.785311  1.39199e-05
1410  0.00445572  0.00885319   -0.435059  -2.60436e-05
1420  0.00496625  0.00936146    0.176621  -6.04494e-06
1430  0.00457662  0.00897355     0.26459  5.40477e-05
1440  0.00388529  0.00828528    0.177134  7.92518e-05
1450  0.00299158  0.00739552    0.177305  3.42007e-05
1460  0.00320128  0.00760429   -0.347774  -3.60872e-05
1470  0.00371333  0.00811407   -0.522687  -4.11909e-05
1480   0.0040251  0.00842447   -0.435316  -2.11286e-05
1490   0.0041359  0.00853478    0.351705  -6.04445e-06
1500  0.00414599  0.00854482    0.614672  3.94272e-05
1510  0.00334735  0.00774972  -0.0854909  7.9957e-05
1520  0.00254685  0.00695275  0.00170907  3.45468e-05
1530  0.00265642  0.00706183   0.0896779  -5.89786e-06
1540   0.0026648  0.00707018   -0.260318  9.31747e-06
1550  0.00247007  0.00687631  0.00213627  -5.92591e-06
1560  0.00278332  0.00718818   0.0895069  -2.62721e-05
1570  0.00299551  0.00739943    0.264676  -5.18238e-05
1580   0.0038198  0.00822007  -0.0857471  -3.66025e-05
1590  0.00372756  0.00812824    0.176792  4.12592e-06
1600  0.00373728  0.00813792    0.176878  -1.63177e-05
1610  0.00405391  0.00845316  0.00187979  -6.2427e-05
1620  0.00498582  0.00938095    0.177049  -6.25393e-05
1630   0.0053047  0.00969842  0.00179434  9.13925e-06
1640  0.00480303  0.00919897    0.264419  1.93908e-05
1650  0.00491688  0.00931232    0.701957  1.43287e-05
1660  0.00451646  0.00891366    0.526788  3.49389e-05
1670  0.00421811  0.00861662    0.614329  -3.20233e-05
1680  0.00515693   0.0095513    0.526702  -5.26825e-05
1690  0.00527176  0.00966562   -0.348543  -3.73483e-05
1700  0.00590389    0.010295    -0.43617  2.47118e-05
1710  0.00477752  0.00917357   -0.610484  4.02136e-05
1720  0.00509962  0.00949424    -1.22319  -2.70595e-05
1730  0.00531871  0.00971237    -1.31056  -3.23267e-05
1740  0.00574615   0.0101379    -1.13556  -6.38424e-06
1750   0.0054464  0.00983949    -1.04836  6.12598e-05
1760  0.00452096  0.00891814   -0.785739  6.13706e-05
1770  0.00421898   0.0086175   0.0894217  1.45721e-05
1780  0.00422952  0.00862798   -0.260232  2.50807e-05
1790  0.00371737   0.0081181   -0.435401  1.98768e-05
1800  0.00383198   0.0082322   -0.523028  9.48379e-06
1810  0.00352769  0.00792926   -0.173033  -3.24878e-05
1820  0.00448174  0.00887909   -0.173032  -1.67325e-05
1830  0.00386234  0.00826243   -0.522943  1.9943e-05
1840  0.00408288  0.00848199    -1.13556  -1.01824e-06
1850  0.00388271  0.00828271   -0.522686  4.11292e-05
1860  0.00326029  0.00766304  -0.0855762  6.75963e-05
1870  0.00253078  0.00693675    0.439588  6.24714e-05
1880  0.00201087  0.00641913     0.61433  4.4322e-06
1890  0.00244214   0.0068485    0.439674  -4.318e-05
1900  0.00287447  0.00727892    0.264334  -2.20684e-05
1910   0.0028835  0.00728792  0.00187992  -6.216e-06
1920  0.00299879  0.00740269    0.526873  -1.68602e-05
1930  0.00322071  0.00762363    0.176963  -6.24671e-06
1940  0.00312372  0.00752707     1.22721  -3.82675e-05
1950  0.00398606   0.0083856    0.964582  -2.7628e-05
1960  0.00367628  0.00807719     1.40203  9.63945e-06
1970  0.00379327  0.00819366    0.701871  -6.52218e-05
1980  0.00498071  0.00937586    0.264334  -5.996e-05
1990  0.00499247  0.00938757    0.439075  9.55141e-06
2000  0.00478969  0.00918568    0.526703  4.19079e-06
2010  0.00490865  0.00930412    0.264163  1.49767e-05
2020  0.00449015  0.00888747    0.176536   6.344e-05
2030  0.00363985  0.00804092   -0.260831  -6.51255e-06
2040   0.0046204  0.00901714   -0.173631  -2.80055e-05
2050  0.00419996  0.00859856   -0.610997  3.66924e-05
2060  0.00388656  0.00828654   -0.173374  3.13803e-05
2070  0.00357236  0.00797373   -0.435657  4.3675e-06
2080  0.00379921  0.00819957   -0.348116  -1.1863e-05
2090  0.00380962  0.00820994  -0.0854054  2.06861e-05
2100  0.00338549  0.00778768    0.526788  0.000107735
2110  0.00165492  0.00606476    0.964496  0.000107925
2120  0.00122698  0.00563871    0.527044   2.649e-05
2130  0.00112512   0.0055373    0.351534  1.01988e-05
2140    0.001023  0.00543563    0.789242  4.75826e-06
2150  0.00102996  0.00544256    0.964154  -6.17002e-06
2160   0.0011464  0.00555849    0.351448  -4.45437e-05
2170  0.00192083   0.0063295    0.176536  -6.65663e-05
2180  0.00247773  0.00688394    0.439246  4.68083e-06
2190  0.00182722  0.00623629    0.263992  6.51348e-05
2200  0.00117503  0.00558699  -0.0860036  4.32663e-05
2210  0.00096189  0.00537479    -0.17346  -2.27849e-05
2220  0.00163073  0.00604068    0.176194  -1.17407e-05
2230   0.0011967  0.00560857    0.351277  2.68686e-05
2240  0.00109336  0.00550568    -0.43617  4.3571e-05
2250  0.000325283    0.004741   0.0890795  -1.73478e-05
2260  0.00144032   0.0058511    0.439075  -6.16832e-05
2270  0.00155895  0.00596921  0.00145263  -7.61176e-07
2280  0.00145554  0.00586626    0.351534  3.2618e-05
2290  0.000906587  0.00531973     0.35179  2.15277e-05
2300  0.00102499  0.00543761    0.176707  -6.94807e-07
2310  0.000920483  0.00533357   0.0894212  -6.29902e-06
2320  0.00115097  0.00556303  0.00170908  1.60865e-05
2330  0.000598752  0.00501326    0.176536  3.28842e-05
2340  0.000493282  0.00490825   -0.173887  -1.18773e-05
2350  0.000836298  0.00524975    0.263992  -1.74959e-05
2360   0.0008432  0.00525662  -0.0860036  -1.7564e-05
2370  0.00118758  0.00559948   -0.173545  -2.32198e-05
2380   0.0013076  0.00571897   0.0889088  -2.89346e-05
2390  0.00176627  0.00617562  -0.0864307  -1.20489e-05
2400  0.00154857  0.00595888    0.088567  -3.47413e-05
2410   0.0024611  0.00686737  -0.0865164  -1.77739e-05
2420  0.00190405  0.00631279    0.438734  1.60955e-05
2430  0.00213919  0.00654689    0.526104  2.18669e-05
2440  0.00146671  0.00587738    0.176109  2.75488e-05
2450  0.00158821  0.00599835   -0.173631  1.05999e-05
2460  0.00125471  0.00566632    0.439075  3.90933e-05
2470  0.000806344  0.00521993    0.613988  1.6363e-05
2480  0.000927455  0.00534051    0.701529  -1.78412e-05
2490  0.00116317  0.00557518    0.526532  -2.36027e-05
2500  0.00139951  0.00581048   0.0892506  -1.79361e-05
2510  0.00152189  0.00593232    0.176707  -6.51722e-06
2520  0.00152985  0.00594024  -0.0860036  -6.54255e-06
2530  0.00165274  0.00606259  -0.0861744  -7.99907e-07
2540  0.00154585  0.00595617  0.00119625  -6.57758e-06
2550  0.00178429  0.00619356   -0.261514  -8.04116e-07
2560  0.00156193  0.00597218    0.088567  -6.61305e-06
2570  0.00191655  0.00632524    0.351107  1.07586e-05
2580  0.00134676  0.00575796    0.351192  -8.57416e-07
2590   0.0019337  0.00634231    0.525934  2.24148e-05
2600  0.000898465  0.00531165    0.438392  7.4629e-05
2610  0.000441121  0.00485632    0.351192  1.67218e-05
2620  0.000564029  0.00497869    0.263565  -2.97758e-05
2630  0.00103664  0.00544921    0.876015  -1.23408e-05
2640  0.000810845  0.00522441   0.0884814  2.84485e-05
2650  0.000467666  0.00488275    0.701188  -7.14805e-07
2660  0.000825141  0.00523865    0.175938  -4.16506e-05
2670  0.00130068  0.00571208   -0.261685  -7.19039e-07
2680  0.000839521  0.00525296  -0.0865163  3.44383e-05
2690  0.000611914  0.00502636  -0.0867727  1.10345e-05
2700  0.000618831  0.00503325   0.0883961  -6.57926e-06
2710  0.000743499  0.00515736    0.350936  5.20024e-06
2720  0.000514827   0.0049297   0.0883107  1.10932e-05
2730  0.000521636  0.00493648    0.351021  -3.61479e-05
2740  0.00123778  0.00564947    0.175767  -1.84413e-05
2750  0.000890462  0.00530368   0.0883962  4.66346e-05
2760  0.000305092  0.00472089    0.438306  5.86181e-05
2770  -0.0002819  0.00413649    0.263309  1.71745e-05
2780  -3.83976e-05  0.00437892    0.788302  -6.52812e-06
2790  -0.000151337  0.00426648    0.613561  -4.23325e-05
2800  0.000808253  0.00522183    0.263223  -3.64071e-05
2810  0.000576804  0.00499141    0.438477  2.31768e-05
2820  0.000344717  0.00476034    0.263479  2.32413e-05
2830  0.000111977  0.00452863    0.263223  -6.67635e-07
2840  0.00035807  0.00477364    0.350765  -6.36016e-07
2850  0.000124697   0.0045413    0.613304  1.13491e-05
2860  0.000131088  0.00454766    0.438221  -6.65861e-06
2870  0.000257869  0.00467388    0.788302   1.744e-05
2880  -0.000217712   0.0042004    0.875673  3.55538e-05
2890  -0.000453207  0.00396594    0.788387  5.4498e-06
2900  -0.000326708  0.00409188    0.875758  1.75963e-05
2910  -0.000805133  0.00361557    0.875929  1.15421e-05
2920  -0.00055755  0.00386206    0.613304  -1.26535e-05
2930  -0.000552063  0.00386752     1.22592  -1.27062e-05
2940  -0.000303425  0.00411506     1.13847  -2.48993e-05
2950  -5.40772e-05  0.00436331     1.13855  5.50826e-06
2960  -0.00041359  0.00400539      1.0511  1.15853e-05
2970  -0.000285782  0.00413263    0.701017  -5.72803e-07
2980  -0.000402134  0.00401679    0.613219  5.52985e-06
2990  -0.000396379  0.00402252    0.438135  -6.70721e-06
3000  -0.00026799  0.00415034    0.525592  -5.78251e-07
3010  -0.000384814  0.00403403   0.0880543  -3.74857e-05
3020  0.000481725  0.00489675    0.525421  -5.59934e-05
3030  0.000735054  0.00514896     0.17551  -6.87232e-06
3040  0.000619171  0.00503359    0.175596  5.43034e-06
3050  0.000626448  0.00504083    0.263138  1.7822e-05
3060  0.000262731  0.00467872    0.175681  4.26166e-05
3070  -0.000225884  0.00419226  -0.0866019  3.65292e-05
3080  -0.000467853  0.00395136  -0.0868583  4.28631e-05
3090  -0.00108315  0.00333879   -0.349312  4.29603e-05
3100  -0.00132706  0.00309595    -0.43711  5.74168e-06
3110  -0.00119798  0.00322446   -0.349739  1.20231e-05
3120  -0.00156752  0.00285655   -0.699393  1.82682e-05
3130  -0.00156334  0.00286071   -0.262027  1.20929e-05
3140  -0.00180938  0.00261576    -0.26177  3.09044e-05
3150  -0.00218143  0.00224535    0.175596  1.84377e-05
3160  -0.00217813  0.00224864  0.00059806  -1.28961e-05
3170  -0.00192351  0.00250214    0.263052  2.48381e-05
3180  -0.0026749  0.00175407    0.175339  6.89478e-05
3190  -0.00330247  0.00112927    0.175511  2.49846e-05
3200  -0.00317459  0.00125658    0.263052  -2.54473e-05
3210  -0.00279352  0.00163597   0.0881398  -5.0822e-05
3220  -0.00215815  0.00226853  0.00059798  -5.09532e-05
3230  -0.00177446  0.00265053  0.000769036  -3.20781e-05
3240  -0.00151659  0.00290726  0.000683534  -1.94672e-05
3250  -0.00138511  0.00303816  0.000512632  5.93382e-06
3260  -0.00163526  0.00278911    0.175767  2.50524e-05
3270  -0.00188616  0.00253932    0.175767  1.87409e-05
3280  -0.00201008  0.00241595    0.788217  3.79927e-05
3290  -0.00264601  0.00178282     1.13821  5.08781e-05
3300  -0.00302764  0.00140288     0.61339  -6.68223e-06
3310  -0.00251237  0.00191588    0.788217  -2.59079e-05
3320  -0.00250948  0.00191875    0.175681  -3.88916e-05
3330  -0.00173454  0.00269027  0.000683624  -3.25069e-05
3340  -0.00185935  0.00256601    0.350679  -1.97659e-05
3350  -0.00133922  0.00308385   -0.261856  1.90006e-05
3360  -0.00223936  0.00218768    0.350679  3.83689e-05
3370  -0.0021066  0.00231986   0.0878834  -3.31854e-07
3380  -0.00223272  0.00219429   -0.349483  3.21083e-05
3390  -0.00274876  0.00168053  0.000512694  1.91723e-05
3400  -0.00261617  0.00181254    0.175425  -2.55927e-07
3410  -0.00274364  0.00168562    0.175425  6.24481e-06
3420  -0.00274106  0.00168819    0.175425  -2.63849e-05
3430  -0.00221595  0.00221099    0.175425  -2.6425e-05
3440  -0.00221256  0.00221436    0.350338  1.27644e-05
3450  -0.00247124  0.00195683  -0.0871145  1.27835e-05
3460  -0.00246823  0.00195982    0.350423  -1.34446e-05
3470  -0.00220234  0.00222453     0.26271  -3.97931e-05
3480  -0.00167237  0.00275217     0.52525  -2.01192e-05
3490  -0.00179996  0.00262514    0.875502  -7.02742e-06
3500  -0.00153182  0.00289209    0.438135  -2.0243e-05
3510  -0.0013951  0.00302821    0.175425  -4.48345e-07
3520  -0.00152286  0.00290102     0.43805  3.9326e-05
3530  -0.00218162  0.00224517    0.525506  5.26928e-05
3540  -0.00257671  0.00185182    0.613133  2.62635e-05
3550  -0.00270689  0.00172222    0.525592  6.37467e-06
3560  -0.0027042  0.00172489    0.350594  -6.94296e-06
3570  -0.00256803  0.00186046    0.263137  -2.03229e-05
3580  -0.00229775  0.00212955    0.700418  -2.91632e-07
3590  -0.0025622  0.00186627    0.263052  1.97815e-05
3600  -0.00269338  0.00173567    0.875587  -2.04406e-05
3610  -0.00215339  0.00227328    0.963044  -1.37258e-05
3620  -0.00241886  0.00200897    0.700333  3.33258e-05
3630  -0.0028199   0.0016097    0.175425  1.31775e-05
3640  -0.00268241  0.00174659   0.0877981  -2.5474e-07
3650  -0.00281481  0.00161478    0.263052  -7.04546e-06
3660  -0.0025415  0.00188688  0.000341784  -3.41533e-05
3670  -0.00213174  0.00229483   -0.262112  -4.78308e-05
