Time   C(t)   
ps   
0           1           1  1.75701e-09   0.0470729
10    0.529351    0.814641   -0.357302   0.0243222
20    0.513557    0.808421     1.49621  0.00157138
30    0.497923    0.802264    0.954184  0.00158901
40    0.481777    0.795904    0.490995  0.00122608
50    0.473402    0.792606    0.798516   0.0011807
60    0.458163    0.786604     0.37533  0.000965458
70    0.454093    0.785001     1.53338  0.000436474
80    0.449433    0.783166    0.333214  0.000727567
90    0.439541    0.779271      1.8415  0.000719047
100    0.435052    0.777503     1.57028  0.000570543
110    0.428131    0.774777     1.57013  0.000843255
120    0.418187     0.77086     2.03411  0.000694272
130    0.414245    0.769308     1.95543  0.000433485
140    0.409517    0.767446     1.91596  0.000546251
150     0.40332    0.765005    0.794136  0.000430329
160    0.400911    0.764056      1.4119  0.00063621
170    0.390596    0.759994     1.79938  0.000500493
180    0.390901    0.760114    0.869686  0.000594854
190    0.378699    0.755308     1.79954  0.000737225
200    0.376156    0.754307   0.0973157  0.000249664
210    0.373705    0.753342      1.9915  0.000245342
220     0.37125    0.752375     1.37159  0.000407666
230    0.365552    0.750131     1.60413  0.000418116
240    0.362887    0.749081     1.37121  0.000551918
250    0.354514    0.745784     1.44978  0.000631519
260    0.350257    0.744107     2.33903  0.000288144
270    0.348751    0.743514     1.33246  0.000160643
280    0.347044    0.742842     1.17687  0.000348604
290    0.341779    0.740768   -0.254059  0.000284904
300    0.341346    0.740598    0.828022  -8.52749e-05
310    0.343484     0.74144     1.13543  0.000276156
320    0.335823    0.738422    0.827456  0.000454673
330    0.334391    0.737858     1.94901  0.000267355
340    0.330476    0.736316    0.247659  0.000332351
350    0.327744    0.735241    0.672469  0.000213796
360      0.3262    0.734632     1.36793  0.000229262
370    0.323159    0.733435    0.130975  0.000374106
380    0.318718    0.731686    0.672581  0.000250103
390    0.318157    0.731465   -0.681284  0.000156049
400    0.315597    0.730457     -1.0296  4.62577e-05
410    0.317231      0.7311    -1.18508  -0.000103602
420    0.317669    0.731273   -0.026203  0.000191677
430    0.313398    0.729591   -0.451049  0.000347333
440    0.310722    0.728537  -0.0265046  0.000388248
450    0.305633    0.726532     1.13418  0.000112577
460    0.308471     0.72765      -0.143  0.000238994
470    0.300853     0.72465    0.283848  0.000133213
480    0.305806    0.726601   0.0884053  -0.000102776
490    0.302909    0.725459    -0.33663  0.000446576
500    0.296875    0.723083   -0.181115  0.000351404
510     0.29588    0.722692   -0.761252  2.37614e-05
520      0.2964    0.722896   -0.840161  0.000236489
530    0.291151    0.720829   -0.491165  0.000444412
540    0.287511    0.719395    -1.18591  -6.0156e-06
550    0.291271    0.720876   -0.299233  0.000100984
560    0.285492      0.7186    -1.07149  0.000517541
570     0.28092      0.7168    -1.76684  -6.14002e-05
580     0.28672    0.719084    -1.26727  -6.0983e-05
590     0.28214     0.71728   -0.802348  0.000443141
600    0.277857    0.715593    -1.45837  0.000102103
610    0.280098    0.716476    -2.42638  5.67079e-05
620    0.276723    0.715146     -1.9619  0.000194621
630    0.276205    0.714943    -1.53623  -0.000270814
640    0.282139     0.71728   -0.921034  0.000159599
650    0.273013    0.713686    -1.03489  0.000374703
660    0.274645    0.714328   -0.881447  -0.000122316
670     0.27546    0.714649   -0.687853  0.000124231
680     0.27216     0.71335    -1.46106  0.000412646
690    0.267207    0.711399   -0.957563  0.000222693
700    0.267706    0.711596    -1.73167  -3.44619e-05
710    0.267896     0.71167    -1.50087  9.97514e-05
720    0.265711     0.71081    -1.73231  0.000208378
730    0.263728    0.710029    -2.04115  0.000281324
740    0.260085    0.708594   -0.340104  1.99676e-06
750    0.263689    0.710013    -1.03723  -0.000111729
760     0.26232    0.709474   -0.651175  0.000220153
770    0.259286    0.708279    -1.11436  7.49603e-05
780     0.26082    0.708884    -1.30829  0.000111781
790     0.25705    0.707399    -1.53981  -0.000169626
800    0.264213     0.71022    -2.89595  -0.000127634
810    0.259603    0.708404    -2.46997  0.000393607
820    0.256341    0.707119   -0.846277  0.000258616
830     0.25443    0.706367     -1.7739  0.000437186
840    0.247597    0.703676   -0.496564  0.000390677
850    0.246617     0.70329    -1.19274  -9.58458e-05
860    0.249514    0.704431    -1.92791  -0.000106273
870    0.248742    0.704127    -1.31052  0.000213825
880    0.245237    0.702746    -1.54095  -8.57897e-05
890    0.250458    0.704802    -2.85757  -1.18017e-06
900    0.245261    0.702756    -2.62522  0.000135309
910    0.247752    0.703737    -2.97448  0.00036305
920       0.238    0.699896    -2.77922  0.000521741
930    0.237317    0.699627    -3.39687  9.48548e-05
940    0.236103    0.699149    -4.20969  0.000275074
950    0.231815     0.69746    -3.93829  5.05447e-06
960    0.236002    0.699109    -4.75183  -0.000318177
970    0.238179    0.699967     -4.1349  -0.000117064
980    0.238343    0.700031    -4.83104  0.000217685
990    0.233825    0.698252    -4.63598  0.000383027
1000    0.230683    0.697014    -3.20611  2.67267e-05
1010    0.233291    0.698041    -3.32294  0.000144541
1020    0.227792    0.695876     -2.9361  0.000422294
1030    0.224845    0.694715    -3.82515  0.000118464
1040    0.225422    0.694943     -4.7927  -1.50211e-05
1050    0.225145    0.694833    -2.35721  0.000252985
1060    0.220363     0.69295    -3.55461  1.71475e-05
1070    0.224802    0.694698    -2.89968  -9.51648e-05
1080    0.222266    0.693699    -3.71156  0.000366932
1090    0.217464    0.691808    -2.28041  0.000324533
1100    0.215775    0.691143    -1.93251  3.42183e-05
1110    0.216779    0.691539    -2.35943  -3.32147e-06
1120    0.215842    0.691169    -1.89485  0.000228953
1130      0.2122    0.689735    -1.89462  0.000397056
1140    0.207901    0.688042    -1.35305  8.37684e-05
1150    0.210525    0.689075    -2.59171  3.55355e-05
1160     0.20719    0.687762    -2.28139  0.000203542
1170    0.206454    0.687472    -1.85685  0.000215013
1180     0.20289    0.686068    -1.46929  -5.12294e-05
1190    0.207479    0.687876    -2.01335  -0.00036137
1200    0.210117    0.688915    0.266971  0.000319349
1210    0.201092     0.68536   -0.813788  0.000303042
1220    0.204056    0.686528   -0.428226  0.000200545
1230    0.197081    0.683781   -0.156252  0.000479516
1240    0.194466    0.682751    -1.16112  6.45637e-05
1250     0.19579    0.683272   -0.234331  -0.000264147
1260    0.199749    0.684831    -1.20305  -5.04963e-05
1270    0.196799     0.68367   -0.274182  0.000333787
1280    0.193073    0.682202   -0.583138  2.63341e-05
1290    0.196273    0.683462    -0.39132  -0.000127484
1300    0.195623    0.683206    0.497357  1.53989e-05
1310    0.195965    0.683341    0.806502  8.72873e-05
1320    0.193877    0.682519   -0.121347  0.000159274
1330    0.192779    0.682086   0.0331123  7.66478e-05
1340    0.192344    0.681915   -0.276259  0.000237533
1350    0.188029    0.680215    0.420487  0.000365487
1360    0.185034    0.679036   -0.313542  4.97922e-05
1370    0.187033    0.679823    -1.55186  -7.77148e-05
1380    0.186589    0.679648      1.4634  0.000150245
1390    0.184028     0.67864   -0.237427  -1.11312e-05
1400    0.186811    0.679736    -1.08924  2.26259e-05
1410    0.183575    0.678462    0.728347  5.56186e-06
1420      0.1867    0.679692     1.30645  -0.000223397
1430    0.188043    0.680221    0.997414  0.000296716
1440    0.180766    0.677355     0.41924  0.000229678
1450     0.18345    0.678412     1.19108  -4.42222e-05
1460     0.18165    0.677703    0.650041  4.53122e-05
1470    0.182544    0.678055    0.726648  0.000281885
1480    0.176012    0.675483    0.920543  0.000400379
1490    0.174536    0.674902    0.688798  0.000159115
1500     0.17283     0.67423     1.15259  -0.000134098
1510    0.177218    0.675958     1.84666  -5.49376e-05
1520    0.173929    0.674662     2.07866  0.000510412
1530     0.16701    0.671937     2.81447  0.000160152
1540    0.170726    0.673401     1.53638  0.000161143
1550    0.163787    0.670668     2.46566   8.706e-05
1560    0.168985    0.672715     1.80612  5.95607e-05
1570    0.162596    0.670199     1.49838  0.000138707
1580    0.166211    0.671623     1.68982  -0.000111161
1590    0.164819    0.671075     2.23135  0.000264919
1600    0.160912    0.669536     2.73435  0.000311078
1610    0.158597    0.668624     3.19879  2.59101e-05
1620    0.160394    0.669332     2.30758  0.000249603
1630    0.153605    0.666658      2.8893  0.000467507
1640    0.151044    0.665649     2.42551  3.26298e-05
1650    0.152953    0.666401     2.92723  -1.29551e-05
1660    0.151303    0.665752     4.04814  0.000280212
1670    0.147348    0.664194     3.81719  0.000223164
1680     0.14684    0.663994     2.50287  -0.000139493
1690    0.150138    0.665293      2.6557  7.98263e-05
1700    0.145243    0.663365     3.77752  -1.38506e-06
1710    0.150166    0.665304     4.04689  3.39307e-05
1720    0.144565    0.663098     3.50649  0.000172494
1730    0.146716    0.663945     3.54438  -0.00047658
1740    0.154096    0.666852      3.2332  3.38554e-05
1750    0.146039    0.663678     2.77194  0.000329687
1760    0.147502    0.664255     2.30633  0.000109755
1770    0.143844    0.662814     3.15757  0.000255452
1780    0.142393    0.662243     3.31184  -0.000117412
1790    0.146192    0.663739     2.69201  -0.000146576
1800    0.145325    0.663397     3.07919  0.000133666
1810    0.143519    0.662686     2.61502  3.43248e-05
1820    0.144638    0.663127     1.49369  4.63411e-05
1830    0.142592    0.662321     2.61529  -0.000100575
1840     0.14665    0.663919     2.73005  4.06511e-05
1850    0.141779    0.662001     2.46022  0.000499524
1860    0.136659    0.659984     2.57646  0.000117518
1870    0.139429    0.661075     2.45917  -5.66766e-06
1880    0.136773    0.660029     2.46041  0.000124025
1890    0.136948    0.660098     2.88492  -5.3069e-05
1900    0.137834    0.660447     2.34331  -5.74291e-06
1910    0.137063    0.660143     3.15452  0.000184011
1920    0.134154    0.658998     1.91801  0.000279372
1930    0.131475    0.657943     2.92307  6.59555e-05
1940    0.132835    0.658478     3.19338   7.829e-05
1950     0.12991    0.657326      1.6857  0.00022728
1960    0.128289    0.656688      3.1164  -8.84831e-05
1970    0.131679    0.658023      3.3089  -0.000160114
1980    0.131491    0.657949     3.07659  0.00019235
1990    0.127832    0.656508     2.88409  3.08514e-05
2000    0.130874    0.657706     3.69469  0.00032532
2010    0.121326    0.653945     3.85141  0.000385381
2020    0.123167     0.65467     4.35309  -7.60503e-05
2030    0.122847    0.654544      2.8833  -2.81725e-05
2040     0.12373    0.654892     2.65027  -0.000160817
2050    0.126063    0.655811     1.41229  0.000116549
2060    0.121399    0.653974      2.1473  9.22512e-05
2070    0.124218    0.655085     2.37811  -7.0443e-05
2080    0.122808    0.654529     1.68238  0.000177533
2090    0.120668    0.653686     2.61125  0.000208287
2100    0.118642    0.652889     3.03681  0.000117715
2110    0.118313    0.652759     2.80465  -0.000106969
2120    0.120782    0.653731      1.8371  7.56565e-05
2130      0.1168    0.652163     1.91495  0.000380379
2140    0.113174    0.650735     2.34116  -0.000192645
2150    0.120653     0.65368     1.60347  8.88161e-05
2160    0.111398    0.650035     2.14746  0.000326735
2170    0.114118    0.651107     1.75982  -0.000119122
2180     0.11378    0.650974     1.91378  -0.00013188
2190    0.116756    0.652146     1.91231  2.77489e-05
2200    0.113225    0.650755      1.2167  7.66627e-05
2210    0.115223    0.651542     1.29308  0.000108006
2220    0.111065    0.649904     1.79642  0.000311412
2230    0.108994    0.649089    0.559541  1.58913e-05
2240    0.110747    0.649779     1.44807  -2.36109e-06
2250    0.109042    0.649107     1.44814  0.000189383
2260     0.10696    0.648288    0.482028  0.00022084
2270    0.104625    0.647368    0.675735  0.000252441
2280    0.101911    0.646299    0.134467  9.14495e-05
2290    0.102796    0.646648     1.75702  -4.50477e-05
2300    0.102812    0.646654    0.326512  -0.000120031
2310    0.105196    0.647593  -0.0991653  -7.02307e-05
2320    0.104217    0.647207   -0.562845  0.00022308
2330    0.100735    0.645836     1.09983  0.000586425
2340    0.092488    0.642588    0.290172  0.000161604
2350   0.0975028    0.644563    0.210394  -0.000282558
2360   0.0981392    0.644814    0.635015  0.00028806
2370   0.0917416    0.642294   -0.368459  0.000112244
2380   0.0958943     0.64393     0.40308  -0.000252085
2390   0.0967833     0.64428   -0.100827  -3.22435e-05
2400   0.0965392    0.644184   -0.719342  7.49603e-05
2410   0.0952841    0.643689   -0.835498  0.000106735
2420   0.0944045    0.643343   -0.216077  -1.3265e-05
2430   0.0955494    0.643794    0.208241  0.000151669
2440   0.0913711    0.642148   -0.139621  0.000278691
2450   0.0899756    0.641599     1.21323  9.52251e-05
2460   0.0894666    0.641398   0.0148762  -6.99434e-05
2470   0.0913745    0.642149    0.555388  2.56602e-05
2480   0.0889534    0.641196   -0.488239  0.000108422
2490    0.089206    0.641295     1.25055  -1.89479e-05
2500   0.0893324    0.641345     2.14021  4.49564e-05
2510   0.0883069    0.640941     1.86918  0.000230867
2520    0.084715    0.639527     1.71468  -0.000282028
2530   0.0939474    0.643163     1.78906  -0.000352607
2540   0.0917672    0.642304     1.36474  0.00043064
2550   0.0853346    0.639771    0.361341  0.000624783
2560   0.0792715    0.637383    0.400022  0.000290995
2570   0.0795147    0.637479    0.593993  -0.000166425
2580      0.0826    0.638694    0.901853  2.09309e-05
2590   0.0790961    0.637314   -0.296988  0.000344367
2600   0.0757127    0.635981    -1.26318  8.0362e-06
2610   0.0789354     0.63725    -1.49677  -0.000361673
2620   0.0829461     0.63883   0.0105711  0.000112138
2630   0.0766926    0.636367     -1.9212  0.000196383
2640   0.0790185    0.637283   -0.839312  6.05904e-05
2650   0.0754808     0.63589  -0.0272785  0.000204041
2660   0.0749377    0.635676   -0.414125  2.82407e-05
2670    0.074916    0.635668    -1.26423  -5.67991e-05
2680   0.0760736    0.636123   -0.530847  0.000303761
2690   0.0688408    0.633275    -1.18691  0.000166152
2700   0.0727506    0.634815    -1.07219  -2.99055e-05
2710   0.0694389     0.63351    -1.26484  0.000292161
2720   0.0669074    0.632513   -0.568734  -9.59594e-05
2730   0.0713581    0.634266   -0.183323  -9.57776e-05
2740   0.0688229    0.633268    -1.07185  0.000280333
2750   0.0657514    0.632058   -0.336536  0.000241347
2760    0.063996    0.631367    0.668636  -0.000235255
2770   0.0704565    0.633911    0.782186  -8.2618e-05
2780   0.0656484    0.632018   -0.647569  0.000468196
2790   0.0610926    0.630223    0.629426  -0.000156285
2800   0.0687741    0.633249    0.550102  -2.25956e-05
2810   0.0615445    0.630401     1.36346  -6.37308e-05
2820   0.0700487    0.633751     1.43772  -4.27092e-05
2830   0.0623987    0.630738    0.782564  0.000558525
2840   0.0588782    0.629351    0.937664  -0.000197178
2850   0.0663423    0.632291     1.28409  -0.000331238
2860   0.0655029     0.63196    -0.22427  0.000231986
2870   0.0617025    0.630464     0.82132  0.000414197
2880    0.057219    0.628698    0.280469  0.000125411
2890   0.0591943    0.629476    0.550441  -0.000103315
2900   0.0592853    0.629512   -0.377898  -0.000184873
2910   0.0628918    0.630932    0.742147  -9.10331e-06
2920   0.0594673    0.629583    0.433115  0.00028868
2930   0.0571182    0.628658    0.394699  0.000248824
2940   0.0544909    0.627623   -0.301669  0.000127128
2950   0.0545756    0.627657   -0.378955  -0.000205941
2960   0.0586097    0.629245    -0.49681  0.000155119
2970   0.0514732    0.626435   -0.301556  0.000154787
2980    0.055514    0.628026    0.122537  -0.000131177
2990   0.0540968    0.627468  -0.0707928  0.000141952
3000   0.0526749    0.626908  -0.0316201  7.3795e-05
3010   0.0526209    0.626887    0.431869  3.29021e-05
3020   0.0520169    0.626649    0.276806  0.000198033
3030   0.0486602    0.625327     0.77909  0.000301688
3040   0.0459831    0.624273     1.08858  6.8097e-05
3050   0.0472983    0.624791     0.62433  -6.26409e-05
3060   0.0472359    0.624766    0.469191  0.000144586
3070   0.0444066    0.623652    0.894567  0.000144805
3080   0.0443398    0.623625     1.74453  0.000103799
3090   0.0423306    0.622834     1.16514  7.61712e-05
3100   0.0428164    0.623025     1.31866  0.000215732
3110   0.0380159    0.621135     1.66769  0.000264745
3120   0.0375215     0.62094     1.32028  2.85659e-05
3130   0.0374446     0.62091  -0.0724528  0.000112539
3140   0.0352707    0.620054     1.70592  -0.000111169
3150    0.039668    0.621786    0.854338  0.000113213
3160   0.0330065    0.619162     1.66777  0.000393432
3170   0.0317994    0.618687     2.13096  -0.000132138
3180   0.0356492    0.620203     2.32289  -6.88083e-05
3190   0.0331755    0.619229     1.20175  0.000198426
3200   0.0316807     0.61864     2.63199  8.4905e-06
3210   0.0330057    0.619162       2.245  0.000142997
3220   0.0288208    0.617513     2.05265  0.000135944
3230   0.0302868    0.618091     2.28292  1.62466e-05
3240   0.0284958    0.617386     3.24968  0.000463421
3250   0.0210184    0.614441     3.59834  8.74386e-05
3260   0.0267471    0.616697     3.40391  -0.000466864
3270   0.0303557    0.618118     2.78449  0.000244874
3280   0.0218496    0.614768      2.1682  0.000123284
3290     0.02789    0.617147     2.55274  -0.00024728
3300   0.0267952    0.616716     3.36489  0.000252978
3310   0.0228304    0.615154     3.67517  -6.93833e-05
3320   0.0281829    0.617262     3.71207  -7.60728e-05
3330   0.0243519    0.615753     2.63113  1.65797e-05
3340   0.0278513    0.617132     3.94333  -9.09423e-05
3350   0.0261707     0.61647     4.21462  0.000370383
3360   0.0204436    0.614214     4.21572  0.000356754
3370   0.0190357     0.61366     3.98348  0.00014818
3380     0.01748    0.613047     4.44814  0.000126826
3390   0.0164992    0.612661      5.3375  -0.000192274
3400   0.0213255    0.614562     4.40821  -0.000119667
3410   0.0188925    0.613603      3.7123  6.88158e-05
3420   0.0199492     0.61402     4.17545  3.27961e-05
3430   0.0182366    0.613345     3.67302  0.000156905
3440   0.0168111    0.612784     2.93834  3.30005e-05
3450   0.0175766    0.613085     3.55637  0.000121241
3460   0.0143862    0.611829      3.2093  0.000128627
3470    0.015004    0.612072     4.25278  -0.00022358
3480   0.0188578     0.61359     4.36787  2.63413e-05
3490   0.0144772    0.611864     4.83238  0.000394507
3500   0.0109677    0.610482     3.71128  -3.25766e-05
3510   0.0151287    0.612121     4.05813  -0.000128248
3520   0.0135327    0.611492     4.36757  0.00029319
3530  0.00926494    0.609812      4.0976  0.000189996
3540  0.00973274    0.609996     4.13545  0.000213258
3550  0.00499978    0.608132     4.75483  0.000399599
3560  0.00174075    0.606848     3.67275  0.000125138
3570  0.00249701    0.607146     4.83201  -0.000411737
3580  0.00997549    0.610092     3.97948  -1.19562e-06
3590  0.00252093    0.607156     4.05812  0.000461968
3600  0.000736134    0.606453     4.09703  0.000193795
3610  -0.00135498    0.605629     4.56105   6.591e-06
3620  0.000604314    0.606401     5.17874  -0.000128528
3630  0.00121559    0.606642     4.52139  0.000104593
3640  -0.00148755    0.605577     4.63766  -0.000114234
3650  0.00350027    0.607541     3.90178  0.000112804
3660  -0.00374363    0.604688     4.56018  0.000407515
3670  -0.00465002    0.604331     4.52127  -2.29739e-05
3680  -0.00328415    0.604869     4.25032  -7.60576e-05
3690  -0.00312887    0.604931     5.68027  0.000167076
3700  -0.00662566    0.603553     5.52592  0.000281627
3710  -0.00876142    0.602712     5.75766  0.000229179
3720  -0.0112092    0.601748     5.33282  -3.00265e-05
3730  -0.00816089    0.602949     5.48663  -5.26296e-05
3740  -0.0101567    0.602163     5.17798  -0.000160606
3750  -0.00494878    0.604214     5.48603  -0.000314196
3760  -0.00387273    0.604638       6.259  3.07605e-05
3770  -0.00556399    0.603971     5.75687  3.83201e-05
3780  -0.00463913    0.604336     5.44697  0.000123534
3790  -0.00803467    0.602998     6.68423  0.000208642
3800  -0.00881197    0.602692     7.61204  -0.000146705
3810  -0.00510057    0.604154     6.48947  6.26334e-05
3820  -0.0100646    0.602199     6.52905  0.000551578
3830  -0.0161321    0.599809     6.10507  0.000101952
3840  -0.0121037    0.601396     6.91575  -0.000224245
3850  -0.0116472    0.601576      5.6012  -0.000326773
3860  -0.00556822     0.60397      5.7931  -0.000296103
3870  -0.00572517    0.603908     5.40614  0.000493478
3880  -0.0154378    0.600083     5.94948  0.00034526
3890  -0.0126304    0.601188     5.83276  -1.40447e-05
3900  -0.0151569    0.600193     6.10356  -0.000195581
3910  -0.00871874    0.602729     5.83163  -2.20356e-05
3920  -0.0147162    0.600367     6.21946  6.37685e-05
3930  -0.00999411    0.602227     6.21779  -4.58873e-05
3940  -0.0137984    0.600728     6.41176  8.69464e-06
3950   -0.010168    0.602158     5.98518  7.28415e-05
3960  -0.0152553    0.600155     6.64381  4.85131e-05
3970  -0.0111383    0.601776     7.45498  -0.00014168
3980  -0.0124217    0.601271     6.75902  -8.67575e-05
3990  -0.00940311    0.602459     7.37648  2.51835e-05
4000  -0.0129253    0.601072      7.2995  0.000272759
4010  -0.0148583    0.600311     7.60902  0.000193651
4020  -0.0167984    0.599547     7.57019  1.63452e-06
4030   -0.014891    0.600298     6.71883  -0.000102618
4040   -0.014746    0.600355     7.33708  -0.000215891
4050  -0.0105731    0.601999     7.06553  4.19448e-05
4060  -0.0155849    0.600025     6.60294  0.000186796
4070  -0.0143091    0.600527     7.10504  0.000107007
4080   -0.017725    0.599182     6.44826  1.7745e-05
4090   -0.014664    0.600388       6.718  -0.000225343
4100  -0.0132182    0.600957     6.71785  5.04201e-05
4110  -0.0156724     0.59999     7.99379  0.000148067
4120  -0.0161795    0.599791     8.22534  -0.000153371
4130  -0.0126049    0.601198     7.25768  -6.31865e-06
4140  -0.0160531     0.59984     6.98779  0.000214279
4150  -0.0168905    0.599511     7.21927  0.000174211
4160  -0.0195374    0.598468     7.80001  0.000100666
4170  -0.0189038    0.598718     7.25878  -6.34431e-05
4180  -0.0182685    0.598968     6.98741  6.83694e-05
4190  -0.0202712    0.598179     7.37395  0.000274991
4200  -0.0237683    0.596802      7.5677  2.74158e-05
4210  -0.0208195    0.597963     6.56116  -0.000146092
4220  -0.0208465    0.597953     7.37286  0.000135634
4230  -0.0235322    0.596895     7.60494  0.000160833
4240  -0.0240631    0.596686     7.64366  0.000153243
4250  -0.0265971    0.595688     7.83748  0.00011182
4260  -0.0262995    0.595805     7.45071  -0.000230526
4270  -0.0219866    0.597504     7.64287  0.000271835
4280  -0.0317362    0.593664     6.71679  -6.42377e-05
4290  -0.0207018     0.59801       7.101  1.30609e-05
4300  -0.0319975    0.593561     7.52822  0.00015437
4310  -0.0237892    0.596794     7.06262  -0.000113432
4320  -0.0297288    0.594454     6.79272  0.000197707
4330  -0.0277434    0.595236     6.32821  -0.000207409
4340  -0.0255807    0.596088     6.86872  0.000199092
4350  -0.0317252    0.593668     8.06832  0.000224578
4360  -0.0300722    0.594319     7.14002  -0.000148551
4370  -0.0287542    0.594838     7.25523  -0.000183216
4380  -0.0264079    0.595762     6.79068  -4.3436e-06
4390  -0.0286673    0.594873     6.51988  0.000226319
4400  -0.0309343     0.59398     6.59743  0.000175679
4410  -0.0321809    0.593489     7.79551  7.33184e-05
4420  -0.0324006    0.593402     7.17673  0.000194151
4430  -0.0360639    0.591959     7.02194  0.000220409
4440  -0.0368088    0.591666     8.14292  0.000316474
4450  -0.0423934    0.589467     6.55882  0.000213364
4460  -0.0410761    0.589985     7.02231  0.000128067
4470  -0.0449547    0.588458     6.32681  0.000119372
4480  -0.0434635    0.589045     5.82355  -7.10709e-05
4490  -0.0435333    0.589018     6.09428  0.000216111
4500  -0.0477858    0.587343     5.93978  0.000155369
4510  -0.0466407    0.587794     6.63513  -4.47219e-05
4520  -0.0468913    0.587695     5.86185  0.000112721
4530  -0.0488951    0.586906     6.24817  0.000446561
4540  -0.0558225    0.584178     6.36478  1.67992e-05
4550  -0.0492311    0.586774     6.86593  -0.000158086
4560  -0.0526608    0.585423     5.70671  9.6398e-05
4570   -0.051159    0.586014     6.24715  0.000229815
4580  -0.0572571    0.583613     5.70701  0.000442626
4590  -0.0600116    0.582528     4.97242  -0.000150148
4600  -0.0542542    0.584795     5.28017  -3.43019e-05
4610  -0.0593255    0.582798     5.35855  0.000107113
4620  -0.0563964    0.583952     5.12544  5.4688e-05
4630  -0.0604193    0.582367     5.28073  0.000286788
4640  -0.0621322    0.581693     5.28066  -5.24102e-05
4650  -0.0593711     0.58278     5.04733  0.00027991
4660  -0.0677304    0.579488     4.70059  0.000127068
4670  -0.0619124    0.581779     6.05261  -6.25066e-06
4680  -0.0676054    0.579537      5.3576  -2.54257e-05
4690  -0.0614039     0.58198       4.892  -0.000160083
4700  -0.0644037    0.580798     4.58251  0.000427394
4710  -0.0699518    0.578613       6.207  0.000374332
4720  -0.0718904     0.57785     5.31911  -0.000105956
4730  -0.0678327    0.579448     5.35655  2.17859e-05
4740  -0.0723261    0.577678     4.97023  0.000139758
4750  -0.0706279    0.578347     5.39553  3.66271e-06
4760  -0.0723993    0.577649     5.89811  -0.00016165
4770  -0.0673949     0.57962      4.6981  4.04011e-05
4780  -0.0732074    0.577331     4.81486  0.000444352
4790  -0.0762819     0.57612     5.39481  0.000261952
4800  -0.0784464    0.575268     6.47746  -2.32615e-05
4810  -0.0758167    0.576303     6.39934  6.96637e-05
4820  -0.0798397    0.574719     6.82502  0.00017126
4830  -0.0792419    0.574954      6.1285  -0.000162051
4840  -0.0765987    0.575995     6.05038  -1.35604e-05
4850  -0.0789707    0.575061     5.39338  0.000368234
4860  -0.0839633    0.573095     6.47667  0.000145184
4870  -0.0818743    0.573918     5.27688  0.000258782
4880   -0.089139    0.571057     5.62576  0.000165085
4890   -0.085176    0.572617     6.28198  1.6436e-05
4900  -0.0894677    0.570927     6.05042  0.000288793
4910  -0.0909519    0.570343     5.47078  0.000186433
4920  -0.0931963    0.569459     5.20096  -3.9826e-05
4930  -0.0901554    0.570656     5.97257  1.73815e-05
4940   -0.093544    0.569322     6.01193  -2.15657e-06
4950  -0.0901123    0.570673     5.23748  0.000321855
4960  -0.0999811    0.566787     5.31587  5.49603e-05
4970  -0.0912115     0.57024     4.73475  -0.000391722
4980  -0.0921466    0.569872     4.34805  0.000265941
4990  -0.0965303    0.568146     5.19903  0.000923603
