Time   Number   
ps   
0          32          30
10          29          26
20          28          27
30          32          21
40          29          25
50          30          26
60          30          28
70          32          22
80          29          24
90          28          26
100          28          23
110          26          26
120          29          20
130          31          21
140          32          20
150          27          29
160          31          24
170          32          21
180          25          31
190          28          24
200          32          20
210          29          18
220          36          19
230          30          27
240          30          22
250          26          27
260          33          21
270          27          23
280          31          20
290          30          24
300          29          17
310          30          19
320          26          22
330          31          19
340          28          24
350          32          19
360          30          21
370          30          18
380          31          20
390          25          26
400          28          28
410          25          25
420          33          22
430          31          20
440          30          23
450          30          23
460          28          28
470          30          19
480          30          22
490          25          24
500          27          24
510          26          20
520          26          22
530          27          21
540          31          22
550          29          17
560          31          20
570          28          22
580          31          21
590          29          21
600          29          25
610          28          27
620          27          28
630          29          24
640          27          28
650          26          27
660          29          22
670          31          25
680          24          25
690          29          22
700          28          25
710          30          23
720          28          22
730          30          23
740          31          16
750          31          24
760          32          23
770          27          26
780          31          21
790          31          19
800          33          23
810          31          23
820          29          28
830          32          20
840          28          23
850          29          22
860          33          19
870          33          25
880          34          17
890          28          23
900          29          21
910          34          23
920          28          23
930          33          18
940          34          22
950          33          23
960          29          30
970          31          23
980          28          23
990          30          22
1000          31          20
1010          27          30
1020          34          20
1030          32          24
1040          27          27
1050          29          27
1060          32          22
1070          30          29
1080          30          29
1090          32          23
1100          34          23
1110          29          24
1120          27          24
1130          29          29
1140          30          28
1150          32          25
1160          29          24
1170          33          23
1180          30          22
1190          27          27
1200          31          26
1210          27          26
1220          32          20
1230          32          22
1240          32          24
1250          32          27
1260          28          30
1270          31          29
1280          30          27
1290          30          25
1300          27          31
1310          31          23
1320          28          31
1330          26          28
1340          28          30
1350          28          29
1360          31          16
1370          30          18
1380          25          23
1390          29          18
1400          29          24
1410          30          17
1420          29          23
1430          33          15
1440          27          25
1450          31          22
1460          30          26
1470          26          22
1480          28          27
1490          31          23
1500          29          23
1510          30          21
1520          29          22
1530          30          19
1540          29          22
1550          30          19
1560          27          25
1570          28          27
1580          28          25
1590          28          23
1600          28          27
1610          28          28
1620          33          24
1630          30          23
1640          24          31
1650          28          26
1660          31          26
1670          31          23
1680          29          31
1690          27          26
1700          29          28
1710          27          25
1720          27          27
1730          23          28
1740          26          27
1750          30          21
1760          31          22
1770          24          27
1780          27          29
1790          31          23
1800          29          23
1810          28          27
1820          28          27
1830          25          26
1840          31          25
1850          27          25
1860          26          26
1870          29          24
1880          32          21
1890          24          19
1900          31          21
1910          28          19
1920          29          27
1930          27          23
1940          25          21
1950          27          30
1960          26          27
1970          24          29
1980          25          22
1990          30          20
2000          30          18
2010          22          23
2020          30          13
2030          29          17
2040          27          22
2050          26          24
2060          30          21
2070          27          23
2080          27          23
2090          30          27
2100          31          19
2110          28          22
2120          29          21
2130          29          24
2140          25          25
2150          26          26
2160          28          25
2170          23          25
2180          29          20
2190          30          19
2200          29          18
2210          27          23
2220          27          23
2230          30          23
2240          25          27
2250          25          23
2260          26          23
2270          31          23
2280          29          24
2290          26          26
2300          27          23
2310          27          25
2320          27          23
2330          27          18
2340          30          22
2350          29          22
2360          25          28
2370          30          18
2380          27          22
2390          26          23
2400          26          23
2410          28          22
2420          27          25
2430          28          21
2440          24          24
2450          28          23
2460          28          23
2470          27          26
2480          31          20
2490          30          19
2500          28          20
2510          28          23
2520          25          25
2530          26          26
2540          25          24
2550          28          24
2560          27          29
2570          25          24
2580          28          20
2590          25          24
2600          24          28
2610          26          20
2620          29          23
2630          25          24
2640          26          26
2650          29          23
2660          25          25
2670          25          26
2680          28          23
2690          27          23
2700          29          19
2710          25          25
2720          28          26
2730          29          21
2740          26          21
2750          24          27
2760          23          22
2770          25          26
2780          29          24
2790          27          25
2800          25          23
2810          28          20
2820          29          23
2830          27          18
2840          28          23
2850          24          24
2860          24          24
2870          21          22
2880          27          19
2890          28          18
2900          27          25
2910          27          24
2920          24          24
2930          25          22
2940          22          25
2950          29          23
2960          29          21
2970          29          24
2980          29          24
2990          28          26
3000          24          30
3010          23          26
3020          26          30
3030          24          25
3040          26          24
3050          25          24
3060          28          27
3070          22          27
3080          28          24
3090          24          34
3100          30          20
3110          31          26
3120          25          29
3130          27          24
3140          26          30
3150          26          33
3160          26          26
3170          27          28
3180          28          22
3190          24          31
3200          26          30
3210          23          25
3220          23          24
3230          23          28
3240          25          25
3250          25          21
3260          23          27
3270          23          29
3280          23          31
3290          24          30
3300          24          35
3310          26          28
3320          26          26
3330          29          21
3340          29          22
3350          25          23
3360          24          29
3370          28          27
3380          24          27
3390          24          29
3400          28          22
3410          29          18
3420          22          27
3430          26          23
3440          22          30
3450          26          24
3460          26          23
3470          25          24
3480          30          17
3490          26          20
3500          23          33
3510          24          29
3520          25          29
3530          29          21
3540          24          32
3550          27          27
3560          24          26
3570          24          25
3580          27          25
3590          21          32
3600          24          34
3610          27          25
3620          26          26
3630          22          31
3640          24          27
3650          24          24
3660          27          26
3670          26          23
3680          27          26
3690          26          24
3700          28          21
3710          25          27
3720          28          23
3730          26          19
3740          24          22
3750          22          23
3760          23          28
3770          25          22
3780          23          26
3790          24          23
3800          25          24
3810          21          29
3820          28          25
3830          22          20
3840          24          22
3850          22          24
3860          23          25
3870          24          23
3880          24          24
3890          23          28
3900          23          27
3910          24          31
3920          23          29
3930          26          27
3940          27          23
3950          24          27
3960          21          28
3970          28          23
3980          26          28
3990          24          28
4000          23          24
4010          28          24
4020          27          28
4030          26          24
4040          28          22
4050          26          27
4060          23          24
4070          26          31
4080          25          24
4090          24          29
4100          23          27
4110          25          24
4120          23          30
4130          25          25
4140          26          24
4150          22          31
4160          23          26
4170          25          25
4180          29          22
4190          21          30
4200          24          26
4210          27          23
4220          24          25
4230          25          22
4240          24          25
4250          22          30
4260          25          21
4270          25          22
4280          27          20
4290          28          20
4300          27          20
4310          24          22
4320          28          24
4330          23          29
4340          24          27
4350          23          25
4360          29          23
4370          26          29
4380          23          27
4390          22          25
4400          27          23
4410          27          24
4420          27          19
4430          28          26
4440          24          31
4450          28          24
4460          27          25
4470          27          23
4480          25          23
4490          27          26
4500          23          32
4510          26          23
4520          28          24
4530          28          22
4540          31          23
4550          27          24
4560          30          19
4570          25          24
4580          25          19
4590          24          28
4600          29          21
4610          25          24
4620          26          26
4630          27          27
4640          23          27
4650          29          22
4660          29          17
4670          28          23
4680          27          22
4690          26          19
4700          26          23
4710          27          20
4720          26          22
4730          29          18
4740          25          26
4750          26          27
4760          27          22
4770          26          22
4780          21          27
4790          25          25
4800          26          24
4810          24          21
4820          28          19
4830          26          19
4840          26          21
4850          23          26
4860          24          26
4870          24          25
4880          27          18
4890          27          22
4900          25          22
4910          23          25
4920          26          20
4930          24          23
4940          25          26
4950          27          21
4960          22          31
4970          23          27
4980          26          21
4990          25          26
5000          23          26
5010          23          24
5020          26          25
5030          22          31
5040          28          24
5050          25          26
5060          26          25
5070          27          24
5080          30          22
5090          27          25
5100          22          22
5110          22          26
5120          25          25
5130          26          24
5140          25          25
5150          29          26
5160          27          26
5170          28          21
5180          24          28
5190          24          30
5200          26          28
5210          25          27
5220          28          29
5230          25          22
5240          25          27
5250          25          25
5260          29          25
5270          28          16
5280          27          24
5290          25          26
5300          30          24
5310          26          20
5320          26          22
5330          25          32
5340          26          26
5350          26          27
5360          27          27
5370          28          28
5380          22          27
5390          27          29
5400          28          29
5410          28          23
5420          25          28
5430          25          26
5440          22          29
5450          27          29
5460          25          27
5470          28          23
5480          27          26
5490          24          25
5500          29          28
5510          29          26
5520          29          22
5530          25          29
5540          26          25
5550          25          23
5560          25          27
5570          29          27
5580          25          29
5590          23          28
5600          25          30
5610          25          31
5620          26          32
5630          24          25
5640          30          21
5650          27          24
5660          23          24
5670          25          26
5680          23          28
5690          26          27
5700          25          25
5710          25          25
5720          20          24
5730          24          22
5740          25          29
5750          25          24
5760          25          30
5770          27          24
5780          27          24
5790          23          31
5800          28          24
5810          23          27
5820          27          31
5830          24          28
5840          26          30
5850          24          26
5860          22          34
5870          26          21
5880          28          25
5890          24          26
5900          25          26
5910          30          26
5920          27          26
5930          28          26
5940          28          25
5950          30          25
5960          25          35
5970          30          33
5980          26          26
5990          29          27
6000          27          26
6010          31          22
6020          27          26
6030          29          23
6040          28          29
6050          26          27
6060          26          29
6070          26          31
6080          26          27
6090          18          29
6100          23          22
6110          25          26
6120          21          31
6130          26          23
6140          26          23
6150          23          28
6160          28          25
6170          21          35
6180          30          23
6190          31          24
6200          27          25
6210          29          24
6220          27          25
6230          31          25
6240          24          32
6250          25          27
6260          30          21
6270          26          28
6280          23          31
6290          24          28
6300          27          24
6310          24          34
6320          28          19
6330          28          21
6340          32          22
6350          25          27
6360          27          22
6370          26          23
6380          28          24
6390          24          25
6400          28          21
6410          29          19
6420          27          20
6430          27          23
6440          22          24
6450          27          23
6460          27          20
6470          24          25
6480          27          23
6490          28          20
6500          27          23
6510          25          22
6520          30          22
6530          24          26
6540          26          22
6550          24          25
6560          27          28
6570          26          22
6580          21          28
6590          25          26
6600          27          28
6610          24          27
6620          27          23
6630          25          26
6640          27          21
6650          27          27
6660          25          27
6670          27          25
6680          26          26
6690          29          24
6700          24          29
6710          24          27
6720          21          30
6730          25          25
6740          24          28
6750          24          22
6760          27          23
6770          26          22
6780          26          24
6790          25          25
6800          26          28
6810          25          25
6820          26          20
6830          29          20
6840          28          19
6850          24          27
6860          23          25
6870          24          26
6880          25          26
6890          24          27
6900          26          27
6910          29          27
6920          25          28
6930          21          30
6940          24          24
6950          27          25
6960          26          25
6970          28          28
6980          24          24
6990          26          21
7000          25          28
7010          26          23
7020          31          25
7030          28          26
7040          23          32
7050          25          25
7060          24          23
7070          29          19
7080          29          21
7090          25          26
7100          25          23
7110          25          22
7120          24          25
7130          30          22
7140          30          19
7150          24          26
7160          30          22
7170          26          26
7180          26          26
7190          30          20
7200          24          30
7210          28          24
7220          31          27
7230          25          29
7240          26          25
7250          28          24
7260          25          28
7270          28          25
7280          26          26
7290          26          28
7300          26          25
7310          28          26
7320          31          20
7330          26          28
7340          28          27
7350          28          22
7360          26          27
7370          27          24
7380          25          27
7390          24          28
7400          25          26
7410          23          26
7420          25          25
7430          23          28
7440          26          31
7450          24          27
7460          26          26
7470          26          25
7480          25          31
7490          25          22
7500          27          27
7510          23          27
7520          26          30
7530          26          26
7540          28          26
7550          24          33
7560          27          25
7570          25          29
7580          27          25
7590          26          30
7600          22          27
7610          26          24
7620          30          21
7630          17          31
7640          22          24
7650          26          18
7660          25          24
7670          19          30
7680          21          30
7690          27          18
7700          21          28
7710          24          27
7720          24          25
7730          23          24
7740          22          27
7750          26          23
7760          26          25
7770          24          25
7780          25          29
7790          27          24
7800          24          26
7810          21          30
7820          28          25
7830          25          27
7840          20          26
7850          26          27
7860          27          22
7870          24          25
7880          26          24
7890          21          30
7900          27          24
7910          27          22
7920          26          22
7930          24          22
7940          28          20
7950          24          24
7960          22          26
7970          25          24
7980          27          23
7990          28          24
8000          26          21
8010          25          25
8020          24          23
8030          21          30
8040          25          25
8050          22          34
8060          28          29
8070          24          24
8080          27          25
8090          21          29
8100          26          29
8110          25          26
8120          22          28
8130          25          26
8140          24          24
8150          24          23
8160          22          24
8170          25          18
8180          28          23
8190          26          21
8200          27          21
8210          22          25
8220          26          23
8230          24          26
8240          31          24
8250          24          29
8260          24          24
8270          25          24
8280          29          21
8290          25          28
8300          27          26
8310          26          24
8320          27          21
8330          29          18
8340          25          27
8350          25          21
8360          26          21
8370          28          24
8380          24          29
8390          25          27
8400          26          23
8410          24          32
8420          30          22
8430          27          25
8440          24          22
8450          25          21
8460          26          24
8470          25          23
8480          23          28
8490          22          28
8500          25          24
8510          27          28
8520          28          30
8530          24          29
8540          29          22
8550          28          26
8560          28          23
8570          28          17
8580          30          19
8590          26          27
8600          29          25
8610          23          28
8620          27          29
8630          26          26
8640          24          29
8650          26          27
8660          27          31
8670          26          26
8680          22          24
8690          25          29
8700          30          21
8710          30          26
8720          24          30
8730          27          25
8740          27          23
8750          31          20
8760          26          28
8770          23          27
8780          27          26
8790          31          20
8800          25          29
8810          25          24
8820          27          26
8830          30          18
8840          26          29
8850          29          27
8860          25          31
8870          26          28
8880          28          19
8890          25          27
8900          30          18
8910          29          22
8920          27          23
8930          26          22
8940          25          25
8950          26          24
8960          28          25
8970          27          26
8980          26          24
8990          26          26
9000          27          28
9010          26          24
9020          23          27
9030          26          20
9040          25          26
9050          24          23
9060          26          24
9070          27          24
9080          26          23
9090          24          26
9100          25          27
9110          21          30
9120          24          23
9130          26          22
9140          27          25
9150          26          23
9160          28          26
9170          27          28
9180          28          24
9190          31          25
9200          26          23
9210          26          27
9220          27          24
9230          27          29
9240          30          19
9250          28          25
9260          24          27
9270          25          26
9280          25          22
9290          26          25
9300          26          23
9310          24          27
9320          24          28
9330          29          22
9340          27          19
9350          25          23
9360          21          27
9370          25          19
9380          27          19
9390          24          27
9400          22          26
9410          17          31
9420          23          24
9430          24          28
9440          22          22
9450          25          23
9460          27          25
9470          25          23
9480          21          25
9490          26          28
9500          29          25
9510          25          30
9520          26          25
9530          27          23
9540          23          28
9550          26          22
9560          26          24
9570          25          23
9580          27          20
9590          28          27
9600          25          25
9610          26          22
9620          22          27
9630          22          25
9640          24          28
9650          21          28
9660          23          25
9670          25          25
9680          24          25
9690          25          19
9700          24          28
9710          26          23
9720          22          26
9730          28          23
9740          25          23
9750          25          22
9760          27          15
9770          24          22
9780          25          26
9790          25          25
9800          25          26
9810          25          23
9820          25          25
9830          24          25
9840          27          22
9850          25          25
9860          25          21
9870          27          23
9880          25          23
9890          22          31
9900          23          30
9910          25          30
9920          25          22
9930          25          25
9940          25          24
9950          26          21
9960          24          27
9970          30          19
9980          29          20
9990          21          22
10000          27          24
