Time   C(t)   
ps   
0           1           1  4.16823e-10   0.0241298
10    0.761558    0.860517    -0.18515   0.0133681
20    0.732638    0.843599     0.38877  0.00260632
30    0.709432    0.830024   -0.212033  0.00214583
40    0.689722    0.818494    0.152811   0.0017846
50     0.67374    0.809145   -0.395806  0.00148584
60    0.660005     0.80111   -0.474289  0.00152186
70    0.643302     0.79134   -0.734939  0.00121945
80    0.635616    0.786843     0.20362  0.000905776
90    0.625187    0.780742  -0.0571318  0.000988898
100    0.615838    0.775274   -0.631714  0.000896174
110    0.607263    0.770258    -1.18056  0.00084953
120    0.598848    0.765335   -0.868183  0.000893208
130    0.589399    0.759807   -0.346424  0.000780019
140    0.583247    0.756209    0.332174  0.000704354
150    0.575312    0.751567   -0.999516  0.000752187
160    0.568203    0.747408   -0.660178  0.000665084
170     0.56201    0.743786   -0.947176  0.000675383
180    0.554696    0.739507    -1.49597  0.000652269
190    0.548965    0.736154   -0.530172  0.000586984
200    0.542956    0.732639    -1.41736  0.000512516
210    0.538715    0.730158    -1.26126  0.000460181
220    0.533753    0.727255   -0.217897  0.000512335
230    0.528468    0.724164    -1.15712  0.000596011
240    0.521832    0.720282   -0.426514  0.000552472
250    0.517419      0.7177    -1.73185  0.000491041
260    0.512011    0.714537    -1.36637  0.000570378
270    0.506011    0.711027    -1.91525  0.000582725
280    0.500357     0.70772     -1.2105  0.000453795
290    0.496935    0.705718   -0.871447  0.000320068
300    0.493956    0.703975    -1.05499  0.000462468
310    0.487686    0.700307    -1.62957  0.000521764
320     0.48352    0.697871  -0.0627659  0.000380933
330    0.480067     0.69585     0.32812  0.000422393
340    0.475072    0.692929    -0.35058  0.000508986
350    0.469887    0.689896   -0.768502  0.000383446
360    0.467404    0.688443   -0.377259  0.000506608
370    0.459755    0.683968   -0.533359  0.000403172
380     0.45934    0.683726   -0.717285  0.000393033
390    0.451894     0.67937    -0.11666  0.000543329
400    0.448474    0.677369  -0.0891905  0.000390144
410    0.444092    0.674806    0.066195  0.000379543
420    0.440883    0.672929   -0.351319  0.000248317
430    0.439125      0.6719   -0.430363  0.00027626
440    0.435357    0.669696   0.0394392  0.000450164
450    0.430122    0.666634  -0.0911026  0.000297998
460    0.429398     0.66621   -0.222256  0.000207426
470    0.425973    0.664207    0.377603  0.000292385
480     0.42355    0.662789    0.378114  0.00033198
490    0.419334    0.660323   -0.509203  0.000346342
500    0.416623    0.658737  -0.0388909  0.000370158
510    0.411931    0.655992     -0.1174  0.000306471
520    0.410494    0.655152   -0.326756  0.000277345
530    0.406384    0.652747   0.0644105  0.000305466
540    0.404384    0.651578   -0.118266  0.000283118
550    0.400721    0.649435   -0.248986  0.000375947
560    0.396865    0.647179   -0.118547  0.00026817
570    0.395358    0.646298    0.011281  0.000192529
580    0.393015    0.644927    0.115832  0.000301763
590    0.389323    0.642767  -0.0410069  0.000364861
600    0.385718    0.640658     0.45522  0.000314592
610    0.383031    0.639086    0.167865  0.000213148
620    0.381455    0.638164    0.898037  0.000164816
630    0.379735    0.637158      1.8643  0.000151193
640    0.378431    0.636395    0.166667  0.000172482
650    0.376285     0.63514      0.5587  0.000210142
660    0.374228    0.633937     1.49795  0.000250292
670    0.371279    0.632212      1.0802  0.000285868
680     0.36851    0.630592     1.02827  0.000316936
690     0.36494    0.628504    0.427674  0.000347987
700    0.361551    0.626521     0.55847  0.000315931
710    0.358622    0.624808     1.18486  0.000234473
720    0.356861    0.623778    0.479579  0.000227979
730    0.354062     0.62214    0.792594  0.000200209
740    0.352857    0.621435    0.740127  0.000301962
750    0.348023    0.618608     1.88919  0.000318931
760    0.346478    0.617704     1.47091  0.000112118
770    0.345781    0.617296      1.3921  0.000121808
780    0.344042    0.616279      1.3141  0.000301814
790    0.339744    0.613765     1.05327  0.000271551
800    0.338611    0.613102     0.21717  0.000229649
810    0.335151    0.611078    0.843786  0.000277519
820    0.333061    0.609855    0.739413  0.000166471
830    0.331822     0.60913   0.0344422  0.000119311
840    0.330675    0.608459    0.582855  0.000174342
850    0.328335    0.607091    0.373422  0.000146067
860    0.327753     0.60675      1.0521  0.000261089
870    0.323113    0.604036     1.07901  0.00030915
880     0.32157    0.603133     1.13035  0.000188011
890    0.319353    0.601836    0.817387  0.000164495
900     0.31828    0.601209     1.10449  1.86458e-05
910     0.31898    0.601618    0.868808  -2.92286e-05
920    0.318865    0.601551     1.31193  0.000182126
930    0.315338    0.599487    0.477234  0.000247298
940    0.313919    0.598658    0.843021  0.000209388
950     0.31115    0.597038    0.555411  0.000272459
960     0.30847     0.59547    0.372556  0.00017173
970    0.307715    0.595028     1.07709  0.000177023
980    0.304929    0.593399     1.02506  0.000232956
990    0.303056    0.592303    0.659299  0.000110027
1000    0.302729    0.592112    0.450172  0.000120054
1010    0.300655    0.590898   -0.124232  0.000156659
1020    0.299596    0.590279    0.763441  0.000222638
1030    0.296202    0.588294    0.398113  0.000213276
1040     0.29533    0.587783    0.920128  7.26447e-05
1050    0.294749    0.587444   -0.228579  0.000131328
1060    0.292704    0.586247  -0.0195282  0.000224321
1070    0.290263    0.584819   -0.646169  0.000185683
1080     0.28899    0.584075   -0.515679  0.000125027
1090    0.287762    0.583356   -0.567712  0.000208569
1100    0.284819    0.581634    -1.22062  0.000145151
1110    0.284859    0.581658    -1.22062  5.98103e-05
1120    0.283622    0.580935    -1.03808  6.23673e-05
1130    0.283612    0.580929    -1.37777  -8.79914e-06
1140    0.283798    0.581038   -0.986552  7.00101e-05
1150    0.282212     0.58011    -1.40402  0.000176029
1160    0.280278    0.578978    -0.88195  0.000210927
1170    0.277993    0.577642    -1.56042  0.000117558
1180    0.277927    0.577603    -0.12436  4.8694e-05
1190    0.277019    0.577072   -0.750899  0.00013541
1200    0.275218    0.576019   -0.986348  0.000115857
1210    0.274702    0.575717    -1.09092  0.000131069
1220    0.272597    0.574485     -1.1955  0.000168514
1230    0.271332    0.573745   -0.751638  1.97202e-05
1240    0.272203    0.574254    -1.24789  4.73186e-05
1250    0.270386    0.573191   -0.569216  8.4658e-05
1260    0.270509    0.573264   0.0310006  0.000152333
1270    0.267339    0.571409   -0.621377  0.000219984
1280     0.26611     0.57069   -0.674073  0.00015804
1290    0.264178     0.56956    0.187737  0.000198434
1300    0.262141    0.568369    -0.15188  0.000123681
1310    0.261705    0.568113    0.344015  0.000146644
1320    0.259208    0.566653   -0.596278  0.000161941
1330    0.258466    0.566219     -1.0922  0.000127181
1340    0.256665    0.565165   -0.596788  0.000165193
1350    0.255162    0.564286  0.00429559  0.000231168
1360    0.252041     0.56246  0.00439746  0.000208884
1370    0.250984    0.561842    -1.11827  9.32112e-05
1380    0.250177     0.56137   -0.778878  9.09232e-05
1390    0.249166    0.560778    -1.17084  0.000164601
1400    0.246885    0.559444    0.108286  0.00023341
1410    0.244498    0.558047  -0.0743657  0.000137427
1420    0.244136    0.557836  -0.0744678  0.000188709
1430    0.240723     0.55584  -0.0483238  0.000224621
1440    0.239644    0.555208    -0.23095  6.7284e-05
1450    0.239378    0.555052   0.0555127  7.00302e-05
1460    0.238243    0.554389   -0.492722  0.000162105
1470    0.236136    0.553156    -1.17071  -2.93903e-05
1480    0.238831    0.554733   -0.806577  1.17786e-05
1490      0.2359    0.553018   -0.805659  0.000160164
1500    0.235628    0.552859    -1.56323  0.000160705
1510    0.232686    0.551138   -0.518585  0.000268873
1520    0.230251    0.549713    -0.75304  0.000120309
1530     0.23028     0.54973   -0.623136  0.000102708
1540    0.228196    0.548512    -0.28362  0.000190497
1550     0.22647    0.547502   -0.518738  0.000162569
1560    0.224945     0.54661   -0.962396  0.000147474
1570     0.22352    0.545776    -1.14602  0.000124527
1580    0.222454    0.545153   -0.545494  5.23061e-05
1590    0.222474    0.545164   -0.989305  0.00010177
1600    0.220419    0.543962   -0.206361  0.000203173
1610    0.218411    0.542787   -0.414672  0.000201068
1620    0.216398     0.54161  -0.0236328  0.000180736
1630    0.214796    0.540673   -0.754723  0.000136893
1640     0.21366    0.540008   -0.858942  0.000105891
1650    0.212678    0.539434   -0.806883  0.000155792
1660    0.210544    0.538185   -0.859019  0.000177073
1670    0.209137    0.537362   -0.649968  5.44257e-05
1680    0.209455    0.537549    -1.19846  4.93869e-05
1690    0.208149    0.536784   -0.702945  9.40621e-05
1700    0.207574    0.536448   -0.885239  -3.70786e-05
1710    0.208891    0.537218   -0.494073  4.18827e-05
1720    0.206737    0.535958     -1.1727  1.54369e-05
1730    0.208582    0.537038    -1.30357  5.26473e-05
1740    0.205684    0.535342    -2.00811  0.000197737
1750    0.204627    0.534724    -1.25098  2.11634e-05
1760     0.20526    0.535095    -1.27768  1.3373e-05
1770     0.20436    0.534568    -1.48691  0.000111388
1780    0.203033    0.533791     -1.1994  0.000220464
1790     0.19995    0.531988    -1.40786  0.00020494
1800    0.198934    0.531394     -1.3039  6.98932e-05
1810    0.198553    0.531171   -0.912275  0.000152685
1820     0.19588    0.529607     -1.4082  0.000323599
1830    0.192081    0.527385   -0.598318  0.000292288
1840    0.190034    0.526188   -0.650835  0.000138028
1850     0.18932     0.52577    -1.09516  8.49113e-05
1860    0.188336    0.525194    -1.17407  6.3657e-05
1870    0.188047    0.525025   -0.390797  4.23975e-05
1880    0.187488    0.524698    -1.04348  5.86085e-05
1890    0.186875    0.524339    -1.54019  0.000139434
1900    0.184699    0.523067   -0.913473  0.000225894
1910    0.182357    0.521696    -2.03581  0.000172514
1920    0.181249    0.521049    -1.14823  0.000183813
1930    0.178681    0.519546    -1.22664  0.000135516
1940    0.178539    0.519463    -1.77503  3.04252e-05
1950    0.178072     0.51919    -1.40988  0.000114496
1960    0.176249    0.518124    -1.64464  0.000171688
1970    0.174638    0.517181    -1.46178  0.000196595
1980    0.172317    0.515823     -1.4615  9.32291e-06
1990    0.174452    0.517072    -1.59261  0.000110395
2000    0.170109    0.514532    -1.77503  0.000213917
2010    0.170173    0.514569    -2.08876  -2.00883e-05
2020    0.170511    0.514767    -2.01007  1.81265e-05
2030    0.169811    0.514357    -2.03647  0.000168652
2040    0.167138    0.512794    -2.32329  0.000116891
2050    0.167473     0.51299    -1.20096  -3.35485e-05
2060    0.167809    0.513186    -1.27939  8.17738e-05
2070    0.165838    0.512033    -1.14925  0.000156109
2080    0.164687     0.51136    -1.14895  0.000159308
2090    0.162651    0.510169    -1.67112   0.0001707
2100    0.161273    0.509363    -1.67086  3.30947e-05
2110     0.16199    0.509782    -1.54075  9.96657e-05
2120    0.159279    0.508197    -1.46217  7.75397e-05
2130    0.160439    0.508875    -1.82811  0.000119576
2140    0.156888    0.506798    -1.01853  0.000205623
2150    0.156326    0.506469    -1.41047  9.51722e-05
2160    0.154984    0.505684    -1.51489  0.000148243
2170    0.153361    0.504735    -1.25352  0.00011793
2180    0.152626    0.504304    -2.03675  1.14664e-06
2190    0.153339    0.504721     -2.1677  0.000112983
2200    0.150366    0.502983   -0.992568  9.62421e-05
2210    0.151414    0.503595    -1.82823  5.75133e-05
2220    0.149216     0.50231    -2.27192  4.34317e-05
2230    0.150545    0.503087    -1.72447  7.18795e-05
2240    0.147778    0.501469    -1.33221  0.00017583
2250    0.147028     0.50103    -1.64584  0.000139816
2260    0.144982    0.499833   -0.705902  3.85866e-05
2270    0.146257    0.500579    -1.01955  9.53712e-05
2280    0.143075    0.498717   -0.915054  0.000245135
2290    0.141354    0.497711   -0.862715  8.17023e-05
2300     0.14144    0.497761    -1.17578  0.000138713
2310     0.13858    0.496088   -0.810019  0.000218344
2320    0.137074    0.495207    -0.91485  0.000105356
2330    0.136473    0.494855   -0.862817  0.000117066
2340    0.134732    0.493837   -0.523352  8.59588e-05
2350    0.134753     0.49385    -1.28104  7.49014e-05
2360    0.133234    0.492961   -0.968336  0.000106403
2370    0.132625    0.492605    -1.17672  2.95281e-05
2380    0.132644    0.492615    -1.04651  0.000144183
2390    0.129742    0.490918    -1.85535  0.000281984
2400    0.127004    0.489316    -1.28094  0.00023107
2410     0.12512    0.488214    -2.19468  6.79031e-05
2420    0.125646    0.488522    -1.49004  5.38375e-05
2430    0.124044    0.487585     -1.5684  9.12957e-05
2440     0.12382    0.487454    -1.17716  0.000175331
2450    0.120537    0.485533    -2.16895  0.000187143
2460    0.120077    0.485264    -1.35983  0.000156007
2470    0.117417    0.483708   -0.471957  0.000107017
2480    0.117937    0.484012    -1.17746  5.9735e-06
2490    0.117297    0.483638    -1.51685  0.000145364
2500     0.11503    0.482311   -0.707355  0.000128157
2510    0.114734    0.482139    -1.43834  -2.57533e-05
2520    0.115545    0.482613    -1.46489  0.00012887
2530    0.112157    0.480631   -0.759694  0.000169816
2540    0.112148    0.480626    -1.41266  0.000109101
2550    0.109975    0.479355    -1.09929  0.00017074
2560    0.108733    0.478628   -0.995169  0.000159502
2570    0.106785    0.477488   -0.237935  0.000148164
2580     0.10577    0.476895    -1.28278  9.57076e-05
2590    0.104871    0.476369    -0.94334  0.000201955
2600    0.101731    0.474532   -0.708222  0.000202347
2610    0.100824    0.474001    -1.33461  0.000114496
2620   0.0994412    0.473193   -0.917323  0.000105881
2630    0.098706    0.472763   -0.108464  0.000109188
2640   0.0972574    0.471915   -0.682562  0.000139096
2650   0.0959241    0.471135   -0.891715  7.41467e-05
2660   0.0957745    0.471048    -1.12716  0.000139831
2670   0.0931275    0.469499   -0.682562  0.000143044
2680   0.0929136    0.469374   -0.317693  4.82079e-05
2690   0.0921633    0.468935   -0.160931  0.000134852
2700   0.0902166    0.467796   -0.213117  0.000159048
2710   0.0889824    0.467074   -0.160828  0.000273267
2720   0.0847513    0.464599   -0.656647  0.000246854
2730   0.0840453    0.464186     -1.0485  -1.93469e-05
2740   0.0851382    0.464826   -0.709369  2.88077e-05
2750   0.0834692    0.463849   -0.474098  8.28665e-05
2760   0.0834809    0.463856   -0.709343  -1.62419e-05
2770    0.083794    0.464039    -1.07521  6.52235e-05
2780   0.0821764    0.463093   -0.997055  0.000171044
2790   0.0803731    0.462038   -0.187661  0.000117049
2800   0.0798354    0.461724    -1.02317  6.29056e-05
2810    0.079115    0.461302   -0.997183  0.000148034
2820   0.0768748    0.459992   -0.970733  0.000120987
2830   0.0766953    0.459887   -0.918801  4.5383e-05
2840   0.0759671    0.459461    -1.07531  -3.68159e-05
2850   0.0774316    0.460317   -0.893244  2.90386e-06
2860    0.075909    0.459427     -1.5458  9.74674e-05
2870   0.0754822    0.459177    -1.44135  4.27309e-05
2880   0.0750544    0.458927    -1.44135  2.75057e-05
2890   0.0749321    0.458855    -1.46788  7.97737e-05
2900   0.0734589    0.457994    -1.93765  8.29987e-05
2910   0.0732722    0.457884    -1.23271  5.56279e-05
2920   0.0723464    0.457343     -1.6505  0.000117351
2930   0.0709251    0.456511    -1.33713  6.82779e-05
2940   0.0709808    0.456544    -1.31137  0.000176768
2950   0.0673898    0.454443    -1.20684  0.000195559
2960   0.0670696    0.454256   -0.763544  0.000100257
2970   0.0653846     0.45327    -1.31119  0.000137722
2980   0.0643152    0.452645    -1.20718  5.73296e-05
2990    0.064238      0.4526    -1.44212  1.08518e-05
3000   0.0640981    0.452518   -0.397782  5.1425e-05
3010   0.0632095    0.451998    -0.55434  7.96005e-05
3020   0.0625061    0.451586   -0.737501  9.54855e-05
3030   0.0612998    0.450881     -1.3379  0.000180262
3040   0.0589009    0.449477    -1.52073   0.0001462
3050   0.0583758     0.44917    -1.23386  9.96556e-05
3060   0.0569078    0.448312    -1.80808  0.000203636
3070   0.0543031    0.446788    -1.99033  0.000153763
3080   0.0538325    0.446513    -1.62492  9.29013e-06
3090   0.0541173    0.446679    -1.28563  7.57007e-05
3100   0.0523185    0.445627    -1.02437  7.57644e-05
3110    0.052602    0.445793    -1.25967  0.000110978
3120   0.0500989    0.444328    -1.62487  0.000168193
3130   0.0492382    0.443825    -1.57266  4.49242e-05
3140   0.0492005    0.443803    -1.31162  5.14785e-05
3150   0.0482086    0.443223    -1.65124  0.000131201
3160   0.0465764    0.442268    -1.59885  6.13492e-05
3170   0.0469816    0.442505    -1.70391  3.92869e-05
3180   0.0457907    0.441808    -1.54679  0.000112904
3190   0.0447235    0.441184    -1.07674  -2.77171e-05
3200    0.046345    0.442133    -1.62546  -8.53932e-05
3210   0.0464314    0.442183    -1.80816  -2.21878e-06
3220   0.0463894    0.442158    -1.33813  5.57018e-05
3230   0.0453174    0.441531    -1.83463  7.51607e-05
3240   0.0448862    0.441279    -1.44326  7.64187e-06
3250   0.0451645    0.441442    -1.23421  7.68527e-06
3260   0.0447325    0.441189    -1.26043  8.21428e-05
3270   0.0435217    0.440481    -1.41709  3.04427e-05
3280   0.0441236    0.440833     -1.1822  -0.000115472
3290   0.0458311    0.441832   -0.790784  5.33992e-05
3300   0.0430557    0.440208    -1.41714  0.000193271
3310   0.0419657    0.439571     -1.1041  5.04442e-05
3320   0.0420468    0.439618    -1.31295   4.416e-05
3330   0.0410825    0.439054   -0.817106  1.47667e-05
3340   0.0417514    0.439445   -0.817463  5.0921e-06
3350   0.0409806    0.438994    -1.28749  9.36158e-05
3360   0.0398791     0.43835    -1.02605  2.15705e-05
3370   0.0405492    0.438742    -1.07842  8.42953e-05
3380   0.0381932    0.437364    -1.20848  0.00018982
3390   0.0367528    0.436521   -0.999885  -2.41356e-05
3400   0.0386759    0.437646    -1.57429  -6.03201e-05
3410   0.0379592    0.437227    -1.49586  0.000184346
3420    0.034989     0.43549   -0.790809  0.000134981
3430   0.0352596    0.435648   -0.608362  -6.03277e-05
3440   0.0361956    0.436195   -0.922243  6.0549e-06
3450   0.0351385    0.435577     -0.9742  0.00012254
3460   0.0337448    0.434762   -0.478279  6.61714e-05
3470   0.0338151    0.434803   -0.426373  0.000113284
3480   0.0314791    0.433436   -0.869751  0.000120131
3490   0.0314125    0.433397   -0.713397  3.33954e-06
3500   0.0314123    0.433397   -0.269382  0.000137661
3510   0.0286592    0.431787   -0.739286  0.000245483
3520   0.0265026    0.430525   -0.582269  7.45187e-05
3530   0.0271689    0.430915    -0.66088  -2.96047e-05
3540   0.0270947    0.430872    -0.68682  5.80938e-05
3550    0.026007    0.430235   -0.530185  7.17193e-05
3560   0.0256603    0.430032   -0.870083  0.000136388
3570   0.0232792     0.42864   -0.634914  0.000207944
3580   0.0215015      0.4276   -0.504296  7.94631e-05
3590     0.02169     0.42771     -1.1052  0.000154769
3600   0.0184061    0.425789   -0.425991  0.000189066
3610   0.0179086    0.425498   -0.165392  0.000111332
3620   0.0161794    0.424486   -0.295602  2.95079e-05
3630   0.0173185    0.425153    -0.76594  -1.13126e-05
3640   0.0164057    0.424619   -0.609254  0.000115446
3650   0.0150096    0.423802    0.200166  9.17308e-05
3660   0.0145711    0.423545   -0.530643  8.17785e-05
3670    0.013374    0.422845   -0.191281  0.000188859
3680   0.0107939    0.421336    -0.50427  0.000147894
3690   0.0104161    0.421115   -0.792008  1.36408e-05
3700   0.0105211    0.421176       -0.74  8.64835e-05
3710  0.00868645    0.420103       -0.74  8.31286e-05
3720   0.0088585    0.420204    -1.02697  8.70362e-05
3730  0.00694573    0.419085   -0.505137  0.000114998
3740  0.00655854    0.418858  -0.0875463  7.01476e-05
3750  0.00554277    0.418264   -0.270096  4.86523e-07
3760  0.00654881    0.418853   -0.635653  2.8652e-05
3770  0.00496973    0.417929    -1.20983  9.85882e-05
3780  0.00457704    0.417699    -0.76622  0.000137585
3790  0.00221804    0.416319   -0.583544  0.00016599
3800  0.00125725    0.415757   -0.818916  0.000251133
3810  -0.00280463    0.413381    -1.28834  0.000262291
3820  -0.00398856    0.412688      -1.367  0.000182137
3830  -0.00644737     0.41125   -0.714136  0.000129553
3840  -0.00657963    0.411173   -0.479427  4.51458e-05
3850  -0.00735029    0.410722   -0.610172   0.0001162
3860  -0.00890363    0.409813    -1.00187  0.000137832
3870  -0.0101069    0.409109   -0.662409  0.000102712
3880  -0.0109579    0.408612   -0.662384  1.74948e-05
3890  -0.0104568    0.408905   -0.297336  0.000217713
3900  -0.0153121    0.406064    -1.18437  0.000282376
3910  -0.0161043    0.405601   0.0683494  0.000133125
3920  -0.0179746    0.404507   -0.505851  0.000165799
3930  -0.0194203    0.403661   -0.427878  9.80481e-05
3940  -0.0199356     0.40336   -0.506361  1.20029e-05
3950  -0.0196604    0.403521   0.0421542  -4.56094e-05
3960  -0.0190234    0.403893   -0.741071  3.01448e-05
3970  -0.0202633    0.403168   0.0678139  0.000182104
3980  -0.0226655    0.401763   -0.846029  0.000215275
3990  -0.0245688    0.400649   -0.793614  0.000110713
4000  -0.0248797    0.400468    -0.14088  9.66344e-05
4010  -0.0265015    0.399519    -1.28946  0.000151531
4020  -0.0279104    0.398695    -1.49818  3.16222e-05
4030  -0.0271339    0.399149    -1.36815  5.74798e-05
4040    -0.02906    0.398022     -1.6289  0.000200277
4050  -0.0311394    0.396806    -1.36786  0.000142249
4060   -0.031905    0.396358    -1.13298  0.000139141
4070  -0.0339223    0.395178    -1.42003  0.000110084
4080  -0.0341066     0.39507   -0.689445  4.79428e-05
4090  -0.0348811    0.394617    -1.05482  3.32676e-05
4100   -0.034772    0.394681    -1.47272  0.000137035
4110  -0.0376218    0.393014   -0.898139  0.000137246
4120  -0.0375169    0.393075    -0.71564  8.22879e-05
4130  -0.0392676    0.392051   -0.794123  0.000134472
4140  -0.0402064    0.391502   -0.297999  0.000146169
4150   -0.042191    0.390341   -0.820166  0.000131655
4160  -0.0428394    0.389962    -1.00307  5.16083e-06
4170  -0.0422942    0.390281   -0.846769  8.0156e-05
4180  -0.0444426    0.389024   -0.924461  6.51853e-05
4190  -0.0435979    0.389518   -0.872632  -3.19941e-05
4200  -0.0438027    0.389398     -1.0031  0.00012211
4210  -0.0460401    0.388089    -1.81239  0.000160029
4220  -0.0470033    0.387526    -1.57712  -5.46649e-06
4230  -0.0459307    0.388153    -1.42097  4.76651e-05
4240  -0.0479566    0.386968    -1.70809  0.000134722
4250  -0.0486252    0.386577    -1.36888  8.97491e-05
4260  -0.0497515    0.385918    -1.31652  0.000185087
4270  -0.0523269    0.384412    -1.52544  0.000261812
4280  -0.0549878    0.382855    -1.31624  9.86367e-05
4290  -0.0542997    0.383258    -2.07324  3.68077e-06
4300  -0.0550614    0.382812    -1.70825  7.24986e-05
4310  -0.0557496    0.382409    -1.96913  7.66229e-05
4320  -0.0565939    0.381916    -1.55154  4.61215e-05
4330  -0.0566721     0.38187    -1.49904  0.000100241
4340  -0.0585987    0.380743    -1.52529  0.000181421
4350  -0.0603005    0.379747    -2.25592  2.75465e-05
4360  -0.0591496     0.38042    -1.96959  8.2097e-05
4370  -0.0619424    0.378787    -1.86501  0.000198345
4380  -0.0631165      0.3781    -1.34282  0.000187545
4390  -0.0656933    0.376593    -1.23827  0.000203654
4400  -0.0671896    0.375717    -2.07373  7.5841e-05
4410  -0.0672101    0.375705    -1.47326  6.84463e-05
4420  -0.0685585    0.374916    -1.99537  2.55264e-05
4430  -0.0677207    0.375407    -1.89138  6.89223e-05
4440   -0.069937     0.37411    -1.42117  2.16775e-06
4450   -0.067764    0.375381     -1.3433  -5.64303e-05
4460  -0.0688084     0.37477    -1.52608  0.000124324
4470  -0.0702505    0.373927    -1.86552  9.31419e-05
4480  -0.0706712    0.373681    -1.55217  0.000168731
4490  -0.0736251    0.371953    -2.15257  0.000161191
4500   -0.073895    0.371795    -2.70065  -3.2473e-05
4510  -0.0729757    0.372333    -2.59646  -6.02998e-05
4520   -0.072689      0.3725    -2.02215  5.09486e-05
4530  -0.0739946    0.371736     -1.7611  0.000174707
4540  -0.0761832    0.370456    -1.73454  3.13293e-05
4550  -0.0746212     0.37137    -1.55253  4.78279e-05
4560  -0.0771397    0.369897    -1.63066  0.00022821
4570  -0.0791854      0.3687    -1.76071  9.23909e-05
4580  -0.0789875    0.368816     -2.1527  4.34555e-06
4590  -0.0792723    0.368649    -2.23092  9.30756e-05
4600  -0.0808491    0.367727    -1.89143  7.71247e-05
4610  -0.0808148    0.367747    -2.20516  -6.41841e-05
4620  -0.0795654    0.368478    -1.84024  4.67449e-06
4630  -0.0809083    0.367692    -1.91829  0.000138609
4640  -0.0823375    0.366856    -2.25748  6.57864e-05
4650   -0.082224    0.366922    -2.28428  8.24969e-05
4660  -0.0839875    0.365891    -2.54473  0.000107178
4670  -0.0843676    0.365668    -2.46655  5.03752e-05
4680   -0.084995    0.365301    -2.62319  0.000128509
4690  -0.0869378    0.364165    -2.62306  7.95066e-05
4700  -0.0865851    0.364371     -2.1275  6.35501e-05
4710  -0.0882088    0.363421    -2.70187  6.7753e-05
4720  -0.0879402    0.363579    -2.38855  0.000105407
4730  -0.0903169    0.362188    -2.70157  6.12624e-06
4740  -0.0880627    0.363507    -2.44102  -4.32279e-05
4750  -0.0894524    0.362694     -1.7363  0.000176671
4760  -0.0915961     0.36144    -2.07528   7.727e-05
4770  -0.0909978     0.36179     -1.0575  -2.65379e-05
4780  -0.0910654     0.36175   -0.978763  9.04217e-05
4790  -0.0928062    0.360732    -1.50085  6.79605e-06
4800  -0.0912013    0.361671    -1.60551  -5.16493e-05
4810  -0.0917732    0.361336    -1.68366  -1.41885e-05
4820  -0.0909175    0.361837    -1.55335  -8.99654e-05
4830  -0.0899739    0.362389    -1.44895  -8.18625e-05
4840  -0.0892803    0.362795    -1.65833  6.16472e-05
4850  -0.0912068    0.361668    -2.07587  8.70641e-05
4860  -0.0910215    0.361776    -1.81473  7.06363e-05
4870  -0.0926196    0.360841    -1.65815  0.000172868
4880  -0.0944789    0.359754    -1.89307  0.000147942
4890  -0.0955784     0.35911    -1.89286  4.17758e-05
4900  -0.0953144    0.359265    -1.91924  -5.031e-06
4910  -0.0954778    0.359169     -1.8669  0.000102152
4920  -0.0973575     0.35807    -1.89314  7.23153e-05
4930  -0.0969241    0.358323    -1.76286  2.11399e-05
4940  -0.0977803    0.357822    -2.15435  7.71832e-05
4950  -0.0984678     0.35742    -1.39765  -4.62569e-06
4960  -0.0976877    0.357876    -1.81558  0.000190436
4970   -0.102276    0.355192    -1.16249  0.000290502
4980   -0.103498    0.354478    -1.39753  7.88748e-05
4990   -0.103854    0.354269    -1.91952  -0.000132752
