Time   Number   
ps   
0          38          29
10          41          26
20          40          25
30          38          24
40          36          28
50          36          25
60          39          26
70          34          21
80          40          21
90          35          23
100          40          23
110          33          21
120          42          25
130          38          20
140          42          23
150          39          23
160          42          24
170          38          22
180          39          20
190          37          24
200          37          17
210          37          20
220          40          17
230          37          23
240          39          18
250          32          22
260          41          22
270          37          25
280          37          25
290          35          17
300          38          21
310          38          18
320          37          14
330          34          26
340          37          21
350          40          18
360          40          21
370          34          16
380          38          22
390          39          15
400          37          20
410          37          18
420          32          20
430          35          19
440          34          19
450          38          18
460          34          19
470          38          16
480          34          17
490          36          22
500          33          18
510          36          20
520          37          24
530          38          21
540          37          19
550          34          25
560          37          24
570          34          21
580          39          19
590          41          19
600          39          22
610          32          21
620          38          19
630          35          17
640          37          21
650          35          22
660          37          20
670          35          19
680          37          21
690          36          27
700          37          26
710          34          22
720          34          19
730          33          22
740          31          20
750          37          23
760          35          18
770          32          16
780          34          15
790          39          21
800          36          21
810          36          19
820          37          23
830          34          21
840          32          18
850          37          19
860          36          22
870          37          21
880          33          17
890          34          22
900          39          15
910          38          17
920          36          15
930          32          15
940          36          22
950          36          15
960          38          16
970          39          20
980          37          18
990          37          22
1000          39          23
1010          37          21
1020          39          20
1030          34          19
1040          33          16
1050          34          19
1060          38          19
1070          34          24
1080          31          16
1090          32          18
1100          31          18
1110          34          16
1120          34          19
1130          33          18
1140          35          16
1150          30          18
1160          33          21
1170          36          18
1180          35          23
1190          32          19
1200          33          19
1210          29          21
1220          35          21
1230          32          23
1240          37          20
1250          32          21
1260          36          16
1270          34          17
1280          33          17
1290          36          18
1300          36          22
1310          37          24
1320          38          24
1330          34          24
1340          31          20
1350          33          22
1360          35          24
1370          33          24
1380          31          22
1390          36          20
1400          36          20
1410          32          23
1420          35          21
1430          34          24
1440          32          27
1450          32          26
1460          32          21
1470          33          25
1480          35          21
1490          34          16
1500          32          16
1510          32          22
1520          32          15
1530          29          24
1540          33          22
1550          33          15
1560          28          20
1570          30          28
1580          34          23
1590          34          14
1600          35          17
1610          33          24
1620          37          24
1630          37          21
1640          34          23
1650          37          24
1660          35          23
1670          36          22
1680          34          26
1690          33          21
1700          35          24
1710          32          19
1720          32          25
1730          35          25
1740          35          22
1750          36          24
1760          36          26
1770          35          20
1780          33          22
1790          33          24
1800          36          25
1810          36          20
1820          35          21
1830          32          23
1840          35          19
1850          36          18
1860          34          23
1870          34          20
1880          37          26
1890          36          24
1900          37          23
1910          36          21
1920          34          23
1930          35          21
1940          40          23
1950          43          21
1960          39          21
1970          35          24
1980          37          26
1990          38          21
2000          40          22
2010          41          24
2020          41          21
2030          35          21
2040          36          25
2050          40          24
2060          37          22
2070          40          22
2080          39          22
2090          40          25
2100          40          27
2110          40          25
2120          40          25
2130          37          28
2140          40          26
2150          37          25
2160          43          21
2170          35          29
2180          39          28
2190          39          27
2200          37          23
2210          39          26
2220          40          23
2230          40          24
2240          41          27
2250          39          29
2260          33          26
2270          41          26
2280          39          23
2290          39          26
2300          39          22
2310          44          26
2320          38          32
2330          43          26
2340          40          33
2350          43          33
2360          40          31
2370          43          25
2380          45          30
2390          39          27
2400          43          26
2410          43          25
2420          41          28
2430          42          26
2440          42          30
2450          41          27
2460          39          24
2470          37          33
2480          42          31
2490          43          31
2500          38          30
2510          41          25
2520          44          26
2530          38          36
2540          39          29
2550          37          28
2560          41          28
2570          42          25
2580          38          22
2590          36          26
2600          40          27
2610          42          26
2620          38          26
2630          41          27
2640          42          31
2650          43          31
2660          45          32
2670          45          28
2680          43          28
2690          44          32
2700          38          27
2710          44          30
2720          37          25
2730          38          25
2740          39          29
2750          37          26
2760          41          26
2770          38          26
2780          40          28
2790          40          27
2800          40          27
2810          41          25
2820          38          23
2830          42          25
2840          40          21
2850          37          21
2860          38          25
2870          37          26
2880          43          27
2890          41          23
2900          42          23
2910          43          22
2920          38          24
2930          46          22
2940          39          24
2950          41          22
2960          38          25
2970          43          22
2980          42          23
2990          36          27
3000          39          22
3010          44          25
3020          45          22
3030          41          22
3040          43          25
3050          40          22
3060          41          28
3070          43          23
3080          40          24
3090          39          21
3100          40          24
3110          41          20
3120          40          24
3130          43          27
3140          42          26
3150          41          19
3160          44          21
3170          38          24
3180          37          28
3190          38          24
3200          42          22
3210          40          25
3220          39          23
3230          41          19
3240          39          26
3250          35          24
3260          36          19
3270          40          21
3280          46          21
3290          37          26
3300          43          20
3310          39          23
3320          38          20
3330          37          24
3340          41          25
3350          42          29
3360          40          24
3370          42          22
3380          40          23
3390          42          25
3400          39          23
3410          35          22
3420          38          24
3430          38          26
3440          38          25
3450          39          21
3460          42          17
3470          40          22
3480          37          19
3490          37          21
3500          35          20
3510          34          26
3520          40          27
3530          38          26
3540          42          25
3550          35          24
3560          38          24
3570          40          22
3580          38          24
3590          37          23
3600          40          25
3610          40          25
3620          36          25
3630          40          21
3640          34          26
3650          39          25
3660          41          20
3670          40          23
3680          43          24
3690          41          25
3700          40          30
3710          39          26
3720          39          28
3730          38          26
3740          38          22
3750          41          23
3760          39          25
3770          41          23
3780          41          30
3790          41          31
3800          38          26
3810          43          28
3820          44          32
3830          40          27
3840          44          35
3850          41          31
3860          44          35
3870          44          26
3880          42          28
3890          41          27
3900          43          28
3910          44          24
3920          48          28
3930          43          27
3940          43          32
3950          42          32
3960          48          31
3970          45          30
3980          42          30
3990          41          31
4000          40          28
4010          42          25
4020          46          25
4030          39          29
4040          42          27
4050          37          30
4060          46          30
4070          42          31
4080          40          30
4090          38          31
4100          39          30
4110          41          31
4120          41          38
4130          38          29
4140          43          30
4150          40          27
4160          41          26
4170          39          29
4180          40          29
4190          39          31
4200          39          30
4210          35          28
4220          39          23
4230          39          28
4240          40          27
4250          37          24
4260          40          30
4270          36          31
4280          36          25
4290          41          34
4300          37          27
4310          38          30
4320          43          29
4330          37          33
4340          39          35
4350          45          32
4360          43          30
4370          42          35
4380          37          27
4390          42          30
4400          41          38
4410          40          31
4420          39          33
4430          43          27
4440          39          39
4450          37          34
4460          41          28
4470          40          28
4480          43          27
4490          44          27
4500          44          31
4510          46          30
4520          39          27
4530          40          30
4540          39          38
4550          41          30
4560          44          28
4570          43          30
4580          41          30
4590          43          27
4600          42          25
4610          46          30
4620          41          28
4630          40          28
4640          37          29
4650          43          31
4660          39          27
4670          41          31
4680          41          34
4690          42          27
4700          42          26
4710          41          25
4720          40          28
4730          42          27
4740          45          26
4750          43          28
4760          40          30
4770          39          29
4780          40          35
4790          44          29
4800          42          31
4810          42          32
4820          39          26
4830          39          23
4840          39          28
4850          41          25
4860          41          27
4870          36          28
4880          35          30
4890          37          30
4900          39          29
4910          39          34
4920          39          25
4930          41          26
4940          45          29
4950          39          28
4960          44          29
4970          37          31
4980          43          26
4990          38          24
5000          39          27
5010          41          29
5020          42          30
5030          45          27
5040          41          29
5050          42          29
5060          41          27
5070          42          28
5080          41          28
5090          45          30
5100          42          26
5110          45          25
5120          40          29
5130          41          26
5140          46          29
5150          41          24
5160          44          29
5170          43          27
5180          40          33
5190          39          27
5200          42          25
5210          42          27
5220          39          31
5230          42          30
5240          42          28
5250          42          30
5260          39          29
5270          40          30
5280          37          34
5290          44          27
5300          40          28
5310          37          32
5320          34          33
5330          41          25
5340          43          31
5350          36          26
5360          44          28
5370          42          30
5380          43          26
5390          44          27
5400          42          31
5410          43          30
5420          43          29
5430          43          33
5440          42          26
5450          44          27
5460          42          25
5470          43          29
5480          42          29
5490          41          29
5500          40          26
5510          43          32
5520          45          29
5530          44          29
5540          42          34
5550          46          30
5560          48          31
5570          46          30
5580          41          34
5590          42          29
5600          44          32
5610          45          33
5620          43          28
5630          46          28
5640          48          31
5650          46          28
5660          43          30
5670          43          31
5680          41          34
5690          43          28
5700          38          39
5710          38          26
5720          39          28
5730          40          34
5740          42          29
5750          40          28
5760          37          31
5770          41          27
5780          40          31
5790          33          33
5800          36          24
5810          37          30
5820          36          29
5830          34          23
5840          44          27
5850          43          26
5860          43          29
5870          47          30
5880          42          29
5890          41          25
5900          35          26
5910          43          24
5920          43          28
5930          36          29
5940          40          28
5950          43          27
5960          38          29
5970          43          33
5980          41          29
5990          36          28
6000          38          26
6010          39          27
6020          40          26
6030          41          29
6040          38          30
6050          38          27
6060          34          30
6070          42          25
6080          38          24
6090          36          31
6100          43          28
6110          41          27
6120          43          28
6130          42          29
6140          41          27
6150          42          29
6160          42          32
6170          40          28
6180          38          27
6190          40          27
6200          38          30
6210          41          30
6220          41          35
6230          40          26
6240          40          31
6250          40          29
6260          44          29
6270          41          30
6280          39          31
6290          39          27
6300          38          28
6310          45          26
6320          40          24
6330          44          28
6340          38          32
6350          40          26
6360          40          28
6370          40          32
6380          40          32
6390          39          25
6400          42          32
6410          42          28
6420          38          34
6430          43          31
6440          41          36
6450          41          35
6460          46          38
6470          45          31
6480          41          34
6490          43          27
6500          39          27
6510          41          27
6520          40          27
6530          39          34
6540          39          29
6550          41          26
6560          35          29
6570          37          25
6580          35          29
6590          36          33
6600          38          28
6610          37          23
6620          43          29
6630          39          27
6640          40          26
6650          39          29
6660          40          28
6670          35          28
6680          40          26
6690          41          29
6700          41          25
6710          39          30
6720          40          27
6730          41          35
6740          38          28
6750          40          28
6760          41          31
6770          39          29
6780          43          27
6790          43          33
6800          39          30
6810          39          34
6820          44          29
6830          43          31
6840          42          26
6850          41          25
6860          41          26
6870          39          25
6880          41          26
6890          39          26
6900          41          25
6910          39          30
6920          36          26
6930          41          25
6940          40          27
6950          41          27
6960          36          29
6970          40          24
6980          40          29
6990          42          30
7000          38          31
7010          38          25
7020          42          26
7030          35          25
7040          42          30
7050          40          28
7060          42          30
7070          42          31
7080          39          30
7090          45          27
7100          39          28
7110          37          27
7120          41          27
7130          45          28
7140          42          29
7150          40          29
7160          43          30
7170          40          28
7180          40          28
7190          39          28
7200          40          27
7210          39          25
7220          39          25
7230          42          31
7240          42          30
7250          38          23
7260          31          31
7270          35          21
7280          33          20
7290          33          21
7300          37          31
7310          33          25
7320          39          24
7330          41          26
7340          43          32
7350          43          29
7360          39          23
7370          42          25
7380          41          27
7390          43          26
7400          41          21
7410          42          27
7420          39          27
7430          41          25
7440          42          25
7450          40          29
7460          33          27
7470          41          26
7480          36          27
7490          40          28
7500          35          29
7510          37          25
7520          37          22
7530          40          22
7540          35          29
7550          35          23
7560          33          27
7570          36          29
7580          38          25
7590          35          27
7600          39          26
7610          37          22
7620          38          17
7630          34          21
7640          33          25
7650          34          22
7660          34          31
7670          38          33
7680          37          25
7690          38          28
7700          39          25
7710          41          24
7720          38          27
7730          43          29
7740          42          24
7750          41          26
7760          37          23
7770          35          26
7780          38          24
7790          34          27
7800          39          21
7810          37          24
7820          41          29
7830          33          28
7840          38          30
7850          39          25
7860          37          28
7870          39          26
7880          41          27
7890          38          29
7900          40          30
7910          41          25
7920          42          25
7930          37          29
7940          47          26
7950          47          28
7960          44          29
7970          44          33
7980          46          28
7990          42          32
8000          45          25
8010          46          26
8020          45          30
8030          44          29
8040          43          24
8050          41          24
8060          45          32
8070          45          36
8080          46          31
8090          46          30
8100          44          31
8110          49          32
8120          46          31
8130          43          33
8140          45          24
8150          45          28
8160          41          33
8170          44          25
8180          42          24
8190          45          25
8200          43          25
8210          44          26
8220          40          26
8230          39          26
8240          40          26
8250          41          25
8260          43          28
8270          43          32
8280          42          30
8290          41          26
8300          41          26
8310          38          32
8320          42          30
8330          41          29
8340          39          25
8350          42          27
8360          41          24
8370          40          29
8380          40          27
8390          44          32
8400          40          27
8410          39          30
8420          43          24
8430          48          26
8440          45          30
8450          48          25
8460          39          28
8470          43          25
8480          40          26
8490          42          23
8500          40          23
8510          37          33
8520          38          31
8530          40          33
8540          35          35
8550          41          28
8560          43          32
8570          46          29
8580          45          26
8590          41          32
8600          44          29
8610          46          30
8620          43          29
8630          43          24
8640          48          27
8650          42          27
8660          39          26
8670          41          25
8680          43          28
8690          41          26
8700          36          34
8710          38          30
8720          40          31
8730          41          28
8740          42          29
8750          38          29
8760          34          26
8770          41          24
8780          38          24
8790          39          31
8800          35          31
8810          41          22
8820          36          25
8830          35          26
8840          38          24
8850          40          27
8860          36          26
8870          39          26
8880          36          25
8890          41          25
8900          37          28
8910          38          28
8920          37          22
8930          40          26
8940          42          25
8950          35          30
8960          32          26
8970          37          27
8980          39          31
8990          33          25
9000          41          29
9010          35          26
9020          37          23
9030          37          22
9040          37          26
9050          37          26
9060          42          22
9070          38          23
9080          34          28
9090          35          30
9100          37          21
9110          37          27
9120          38          27
9130          36          24
9140          34          26
9150          36          20
9160          37          22
9170          39          22
9180          36          19
9190          37          24
9200          39          22
9210          35          24
9220          40          26
9230          36          35
9240          38          30
9250          40          26
9260          38          25
9270          43          31
9280          45          27
9290          44          27
9300          37          31
9310          37          29
9320          39          34
9330          44          23
9340          39          25
9350          40          27
9360          35          29
9370          40          28
9380          41          31
9390          40          23
9400          36          23
9410          37          25
9420          36          26
9430          40          26
9440          35          21
9450          39          21
9460          39          30
9470          36          25
9480          38          26
9490          37          24
9500          38          22
9510          39          25
9520          36          26
9530          36          26
9540          38          32
9550          37          22
9560          34          25
9570          38          24
9580          30          27
9590          36          24
9600          41          22
9610          38          24
9620          41          22
9630          35          30
9640          39          28
9650          36          24
9660          37          22
9670          41          24
9680          37          27
9690          34          25
9700          40          25
9710          39          28
9720          40          25
9730          40          26
9740          39          25
9750          37          25
9760          40          28
9770          38          28
9780          41          24
9790          42          24
9800          38          23
9810          35          30
9820          43          24
9830          41          27
9840          38          27
9850          39          27
9860          37          32
9870          43          27
9880          40          31
9890          42          28
9900          41          27
9910          41          26
9920          38          33
9930          40          28
9940          42          35
9950          42          24
9960          39          28
9970          41          25
9980          46          28
9990          41          30
10000          41          27
