Time   C(t)   
ps   
0           1           1  2.36261e-09   0.0495907
10    0.506593    0.780774   -0.282443     0.02575
20    0.484999     0.77118    0.817098  0.00190931
30    0.468407    0.763807     1.52052  0.00138418
40    0.457316    0.758879     2.66365  0.00125603
50    0.443286    0.752646   -0.414941  0.000815716
60    0.441002    0.751631   -0.241642  0.000330977
70    0.436667    0.749705      1.7807  0.000604558
80     0.42891    0.746259     2.17592  0.000644635
90    0.423774    0.743976     1.20574  0.000680223
100    0.415306    0.740214   -0.552767  0.000881906
110    0.406136     0.73614    -0.33304  0.000702567
120    0.401255    0.733971     1.42598  5.25877e-05
130    0.405084    0.735672     1.64361  0.000376816
140    0.393718    0.730622   -0.511108  0.000916867
150    0.386747    0.727525   -0.290177  0.000363609
160    0.386446    0.727391    0.542949  0.000320412
170    0.380339    0.724678     2.03891  0.000335565
180    0.379735    0.724409     1.55302  0.000444958
190     0.37144    0.720724    0.630607  0.000603376
200    0.367667    0.719048     1.33454  0.000481379
210    0.361812    0.716446      4.2373  0.000279529
220    0.362077    0.716564     2.34423  0.000171491
230    0.358382    0.714922     3.53212  0.000345069
240    0.355175    0.713497     3.22254  0.000633493
250    0.345712    0.709293    0.805195  0.000748628
260    0.340203    0.706845     1.81794  0.000129114
270     0.34313    0.708145     2.91455  1.04502e-05
280    0.339994    0.706752     2.78309  0.00034382
290    0.336254     0.70509     2.34101  0.000125168
300     0.33749     0.70564     1.15111  0.00021552
310    0.331943    0.703175     2.60416  0.000615202
320    0.325186    0.700173     4.05807  0.000231363
330    0.327316    0.701119     2.77969  0.000122225
340    0.322742    0.699087     3.92403  0.000212288
350     0.32307    0.699233     3.83504  0.000298257
360    0.316777    0.696436     4.14384  0.000363857
370    0.315793    0.695999     4.27389  0.000133614
380    0.314104    0.695249     4.09797  0.000244556
390    0.310902    0.693826       6.958  8.88482e-05
400    0.312327    0.694459     5.63576  -3.17335e-05
410    0.311537    0.694108     5.67897  0.000493044
420    0.302467    0.690078     5.68133  0.000387529
430    0.303786    0.690664     6.51528  0.000201716
440    0.298432    0.688286     4.75638  0.000373939
450    0.296307    0.687342      6.6927  0.000410394
460    0.290224    0.684639     6.47177  8.12277e-05
470    0.294683     0.68662     4.71111  -0.000111049
480    0.292445    0.685626     4.49005  0.000361228
490    0.287458     0.68341     3.83091  0.000173503
500    0.288975    0.684084     7.21711  -4.48868e-05
510    0.288356    0.683809      7.7894  0.000113049
520    0.286714    0.683079     8.27357  0.000409395
530    0.280168    0.680171     7.13087  0.000384422
540    0.279026    0.679663     5.81039  0.000278074
550    0.274606      0.6777     5.85519  0.000135063
560    0.276325    0.678463     6.95275  -0.000105335
570    0.276713    0.678636      6.5127  0.000212602
580    0.272073    0.676574     7.30528  0.000238486
590    0.271943    0.676516     7.43606  0.00020837
600    0.267905    0.674722      7.2601  0.00017775
610    0.268388    0.674937     7.87556  9.5883e-05
620    0.265987     0.67387     7.25829  0.000204292
630    0.264303    0.673122     7.34664  0.000421757
640    0.257552    0.670122     7.43559  0.000231028
650    0.259682    0.671069     7.91911  -0.000114866
660     0.25985    0.671143       6.114  0.000252727
670    0.254628    0.668823     6.28958  0.000258186
680    0.254686    0.668849     5.10087  8.76397e-05
690    0.252875    0.668044      5.4528  0.000129287
700      0.2521      0.6677     6.55217  0.000254551
710    0.247784    0.665782     6.11172  0.00022367
720    0.247627    0.665712     4.57191  1.57297e-05
730    0.247469    0.665642      7.1233  4.18678e-05
740    0.246789     0.66534     6.28648  0.000250989
750    0.242449    0.663412     2.59075  0.000591511
760    0.234959    0.660084     5.62996  0.000383127
770    0.234787    0.660007     5.71629  -0.000150631
780    0.237972    0.661422     3.68973  -0.000171813
790    0.238223    0.661534     3.38153  0.000279691
800    0.232378    0.658937     4.08624  0.000258931
810    0.233044    0.659233     5.01051  -8.25368e-05
820    0.234029     0.65967     5.93275  4.38675e-05
830    0.232167    0.658843     5.00943  0.000186349
840    0.230302    0.658015     3.55577  0.000255423
850    0.227059    0.656574     6.24061  0.000298238
860    0.224337    0.655364     6.41632  2.35297e-05
870    0.226588    0.656365      5.0066  0.00025712
880    0.219195     0.65308     5.09799  0.000358028
890    0.219427    0.653183     5.84449  -2.10628e-06
900    0.219237    0.653098     7.86722  0.000104235
910    0.217343    0.652257     5.88675  0.000471862
920    0.209799    0.648905     6.46012  0.000254008
930    0.212263        0.65     8.74622  0.000121688
940    0.207366    0.647824     7.20636  0.000297855
950    0.206306    0.647353     8.12917  0.000175684
960    0.203852    0.646263     7.07279  0.000331332
970    0.199679    0.644408      8.4387  6.92755e-05
980    0.202467    0.645647     7.24888  -3.75554e-05
990     0.20043    0.644742     7.73189  0.000461807
1000     0.19323    0.641543     7.73374  0.000177461
1010    0.196881    0.643165     7.11578  -0.000273889
1020    0.198708    0.643977      7.5113  0.000339965
1030    0.190081    0.640144     8.96504  0.000658579
1040    0.185537    0.638125     6.45729  -3.66963e-05
1050    0.190815     0.64047     9.79886  -3.08685e-05
1060    0.186154    0.638399     7.99547  0.000320513
1070    0.184405    0.637622     9.31607  6.11864e-05
1080     0.18493    0.637855     7.73081  -4.16607e-05
1090    0.185238    0.637992     7.46522  0.000414626
1100    0.176638    0.634171     8.47942  0.000540117
1110    0.174436    0.633193      7.6429  -2.45899e-05
1120     0.17713     0.63439     7.86125  -2.54884e-06
1130    0.174487    0.633215     7.64105  0.000215446
1140    0.172821    0.632475     7.99375  3.56846e-05
1150    0.173773    0.632898     7.28848  8.52495e-06
1160     0.17265    0.632399     7.15598  0.000117952
1170    0.171414     0.63185     7.94779  0.000129194
1180    0.170066    0.631251     7.46259  0.000360034
1190    0.164214    0.628651     7.33237  0.000151772
1200    0.167031    0.629903     5.74703  0.000185591
1210    0.160502    0.627002     5.66024  6.43447e-05
1220    0.165744    0.629331     7.50632  -3.40879e-05
1230    0.161184    0.627305     5.87897  0.000368244
1240    0.158379    0.626058     5.74695  0.000291818
1250    0.155347    0.624711     7.15486  6.56262e-05
1260    0.157066    0.625475     5.17495  4.38936e-05
1270    0.154469    0.624321     7.33091  6.03676e-05
1280    0.155859    0.624939     6.40532  -2.80976e-05
1290    0.155031    0.624571     6.66907  9.39995e-05
1300    0.153979    0.624104     8.64833  0.000172115
1310    0.151589    0.623042     5.78857  0.000334015
1320    0.147299    0.621135     6.27338  0.00016176
1330    0.148354    0.621604     5.30423  1.16512e-05
1340    0.147066    0.621032     5.08472  0.000402888
1350    0.140296    0.618024     5.39365  0.00054341
1360    0.136198    0.616203     6.58188  9.09403e-05
1370    0.138477    0.617216     3.89769  -0.000104805
1380    0.138294    0.617134     6.05292  -0.000273667
1390    0.143951    0.619648     4.77393  1.8426e-05
1400    0.137925    0.616971     5.04022  3.4678e-05
1410    0.143257     0.61934     5.78599  -0.000122366
1420    0.140372    0.618058     7.37004  0.000119468
1430    0.140868    0.618278     4.95045  9.16921e-05
1440    0.138539    0.617243      5.5228  0.000442403
1450     0.13202    0.614347     5.65611  0.000103444
1460     0.13647    0.616324     6.27058  -0.000235783
1470    0.136735    0.616442     6.05085  -2.65822e-05
1480    0.137001     0.61656     4.90549  0.000229049
1490    0.132154    0.614407     5.56712  0.000365796
1500    0.129685     0.61331     6.00726  7.63319e-05
1510    0.130628    0.613728     5.30169  0.000128053
1520    0.127124    0.612172     4.68632  0.000162335
1530    0.127381    0.612286     4.68589  8.60617e-06
1540    0.126952    0.612095      6.4456  -6.00994e-05
1550    0.128583     0.61282     5.52112  -5.43445e-05
1560    0.128039    0.612578     5.03597  -3.73945e-05
1570    0.129331    0.613152     4.50868  -7.76134e-05
1580    0.129591    0.613268     4.99229  0.000336141
1590    0.122608    0.610165     5.39004  0.00024441
1600    0.124703    0.611096     5.47723  -0.00021556
1610    0.126919    0.612081     5.07999  0.000384053
1620    0.117022    0.607683     5.43505  0.00014161
1630    0.124087    0.610822      4.9916  -0.000302423
1640    0.123071    0.610371     4.77144  -1.98677e-05
1650    0.124484    0.610999     5.69506  -0.000135713
1660    0.125785    0.611577     5.64988    6.13e-05
1670    0.123258    0.610454     2.56957  0.000555256
1680     0.11468    0.606642     4.59668  0.000468937
1690     0.11388    0.606287     2.96827  2.77292e-05
1700    0.114125    0.606396     4.90274  -6.54254e-05
1710    0.115188    0.606868     3.75853  0.000279026
1720    0.108545    0.603917     3.93578  5.11985e-05
1730    0.114164    0.606413     3.09737  -0.000147002
1740    0.111485    0.605223     3.97753  0.000274157
1750    0.108681    0.603977     3.40622  9.28927e-05
1760    0.109627    0.604397     4.41797  -0.000106402
1770    0.110809    0.604923     2.96517  -1.84122e-05
1780    0.109995    0.604561     1.60042  -1.27107e-05
1790    0.111063    0.605036     3.31529  0.000235072
1800    0.105294    0.602472     2.61303  0.000211582
1810    0.106832    0.603155     2.87627  0.000100224
1820    0.103289    0.601581     3.44861  -3.59118e-05
1830     0.10755    0.603474     1.11535  2.96541e-05
1840    0.102696    0.601318     1.90918  -0.000125143
1850    0.110053    0.604587     1.59849   0.0001367
1860   0.0999621    0.600103      0.4566  0.000391713
1870    0.102218    0.601106     1.46728  5.4016e-05
1880   0.0988818    0.599623     1.73124  -5.94892e-05
1890    0.103408    0.601634    0.321825  -1.14098e-05
1900     0.09911    0.599725     1.77501  2.39059e-05
1910     0.10293    0.601422     1.33289  6.50659e-06
1920   0.0989799    0.599667    0.542068  0.000533329
1930   0.0922635    0.596683    0.543357  0.000156527
1940   0.0958493    0.598276    0.410944  -5.26808e-05
1950   0.0933171    0.597151     1.29097  -6.52377e-05
1960   0.0971541    0.598856     2.08201  -0.000215567
1970   0.0976284    0.599066     1.68438  7.71508e-07
1980   0.0971387    0.598849    -1.04361  5.50687e-05
1990   0.0965271    0.598577     1.11247  1.88816e-05
2000    0.096761    0.598681     1.02396  0.000152134
2010   0.0934844    0.597225     1.33229  0.000340166
2020   0.0899577    0.595658    0.364602  5.58268e-05
2030   0.0923679    0.596729    0.891543  -0.000210952
2040   0.0941767    0.597533    0.582267  0.000159512
2050   0.0891776    0.595312     3.35588  0.00031785
2060   0.0878197    0.594708     1.77161  -0.000150651
2070   0.0921906     0.59665     1.10921  -0.000303315
2080    0.093886    0.597404     2.25273  0.000178682
2090    0.088617    0.595062    0.450284  0.00019093
2100   0.0900674    0.595707    0.712917  0.00014283
2110   0.0857604    0.593793     1.19738  0.000363736
2120   0.0827927    0.592475     2.16584  0.000358598
2130   0.0785884    0.590607    0.582611  0.000211783
2140    0.078557    0.590593    0.581622  -9.16906e-06
2150   0.0787718    0.590688     0.80092  -0.0002189
2160   0.0829351    0.592538    0.799847  0.000151328
2170   0.0757452    0.589343    0.669755  0.000132447
2180   0.0802861    0.591361    -1.26777  -2.1236e-05
2190     0.07617    0.589532    0.668207  0.00029434
2200   0.0743993    0.588745  -0.0354708  -8.93436e-06
2210   0.0763487    0.589611    0.491857  -3.97958e-05
2220   0.0751952    0.589099    0.403683  -6.49825e-05
2230   0.0776483    0.590189    0.622508  8.46222e-05
2240   0.0735028    0.588347    -1.48964  0.000190494
2250   0.0738384    0.588496    0.930497  6.00994e-05
2260   0.0723008    0.587813     0.71051  0.000122661
2270   0.0713852    0.587406    -1.35917  0.000104228
2280   0.0702162    0.586887   0.0494365  0.000236206
2290   0.0666611    0.585307     2.51416  0.000198959
2300    0.066237    0.585119     1.32632  -5.18356e-05
2310   0.0676978    0.585768    0.621305  -8.33277e-05
2320   0.0679036    0.585859     2.38102  -0.00010883
2330   0.0698744    0.586735     1.41127  0.000124546
2340   0.0654127    0.584753     1.14812  0.000320419
2350    0.063466    0.583888   -0.744048  0.000232838
2360   0.0607559    0.582683   -0.126697  -9.6193e-05
2370   0.0653899    0.584742     1.32344  -0.000216519
2380   0.0650863    0.584607    -1.88946  0.000227406
2390   0.0608418    0.582722    0.267705  0.000386777
2400   0.0573508     0.58117   -0.258894  -0.000140959
2410   0.0636609    0.583974    0.266672  -6.40906e-05
2420   0.0586326     0.58174     0.66348  0.000382108
2430   0.0560188    0.580579   -0.435329  0.000114639
2440   0.0563398    0.580721  -0.0855535  0.000179192
2450    0.052435    0.578986    -1.00788  0.000211428
2460   0.0521112    0.578843      1.4552  -0.000102404
2470    0.054483    0.579896    0.530467  -0.000276122
2480   0.0576337    0.581296    0.133057  9.01962e-05
2490   0.0526791    0.579095  -0.0852946  -9.06188e-05
2500   0.0594461    0.582101    -1.62764  -0.000225675
2510   0.0571926      0.5811     1.76139  0.000161021
2520   0.0562256    0.580671   0.0891635  0.000161517
2530   0.0539623    0.579665    0.441562  0.000382256
2540   0.0485805    0.577274    -1.36174  0.000506419
2550   0.0438339    0.575165    0.531025  1.38443e-05
2560   0.0483036    0.577151   -0.173298  -0.000395516
2570   0.0517442    0.578679     -2.2876  0.000137766
2580   0.0455483    0.575927   -0.525223  0.000144024
2590   0.0488637      0.5774   -0.967772  -0.000162114
2600   0.0487906    0.577367    -1.67166  0.000151309
2610   0.0458376    0.576055    -1.40783  0.000151543
2620   0.0457597     0.57602    -1.23251  -3.81392e-05
2630   0.0466003    0.576394   -0.528059  1.43876e-05
2640    0.045472    0.575893   -0.704495  0.00019851
2650   0.0426301     0.57463   -0.483821  -3.8253e-05
2660   0.0462371    0.576233    -1.05732  6.76455e-05
2670   0.0412772    0.574029    -1.36436  0.00051648
2680   0.0359074    0.571643    -2.94768  2.17324e-05
2690   0.0408426    0.573836    -2.20144  -0.00028886
2700   0.0416846     0.57421    -2.59722  -1.79896e-05
2710   0.0412024    0.573996    -2.81712  -7.78945e-05
2720   0.0432425    0.574902    -2.29069  -0.000250868
2730   0.0462197    0.576225    -3.03899  0.000188106
2740   0.0394804    0.573231    -2.94936  0.000194639
2750    0.042327    0.574495    -3.43464  -0.000251667
2760   0.0445138    0.575467    -2.37973  0.000309398
2770    0.036139    0.571746    -2.77447  0.000188985
2780   0.0407341    0.573788    -2.68767  -7.11804e-05
2790   0.0375626    0.572378    -3.12687  0.000290751
2800    0.034919    0.571204    -3.87461  9.14913e-06
2810   0.0373796    0.572297     -2.4234  -0.000354158
2820   0.0420022    0.574351    -4.62506  0.000123841
2830   0.0349028    0.571197    -3.03985  0.000251687
2840   0.0369684    0.572114    -3.52389   0.0001313
2850   0.0322768     0.57003    -2.51081  0.000110882
2860   0.0347508    0.571129    -3.74392  -5.78457e-05
2870   0.0334337    0.570544    -4.35947  0.000131863
2880   0.0321135    0.569957    -3.03951  0.00016626
2890   0.0301085    0.569066    -3.03925  -0.000241954
2900   0.0369526    0.572107    -2.29232  -9.20005e-05
2910   0.0319485    0.569884    -1.80743  8.45015e-05
2920   0.0352626    0.571356    -2.77597  -4.46185e-05
2930   0.0328409     0.57028    -2.37994  2.78354e-06
2940   0.0352069    0.571332    -1.58822     5.8e-05
2950   0.0316809    0.569765     -3.4803  0.000366835
2960   0.0278702    0.568072    -3.74362  -6.54856e-05
2970   0.0329906    0.570347      -2.689  -0.000154562
2980   0.0309614    0.569445    -2.33678  -0.000155528
2990   0.0361012    0.571729    -2.03124  -0.000424875
3000    0.039459    0.573221      -2.164  0.000286338
3010   0.0303744    0.569185   -0.798254  0.000334746
3020    0.032764    0.570246   -0.931055  -4.50411e-05
3030   0.0312752    0.569585     -2.5593  0.000489503
3040    0.022974    0.565897    -1.54492  0.000434782
3050   0.0225796    0.565721    -1.28165  -0.00027407
3060   0.0284554    0.568332    -4.31871  -0.00046284
3070   0.0318364    0.569834    -2.95602  -8.00343e-05
3080   0.0300561    0.569043    -2.29598  0.000157292
3090   0.0286905    0.568436    -1.37085  -3.14449e-05
3100    0.030685    0.569323     -1.1077  0.000116094
3110   0.0263687    0.567405    -1.54686  0.000277652
3120   0.0251319    0.566855    -2.11898  -0.00027739
3130   0.0319165     0.56987    -2.69162  -0.000214172
3140   0.0294154    0.568758    -1.81155  -0.00020841
3150   0.0360847    0.571722    -2.91389  4.61345e-05
3160   0.0284927    0.568349    -1.89986  0.000314261
3170   0.0297994    0.568929    -1.72394  1.09668e-05
3180   0.0282733    0.568251     -1.5917  -3.89305e-05
3190    0.030578    0.569275    -2.16468  9.63739e-05
3200   0.0263459    0.567395    -1.10813  6.05959e-05
3210   0.0293661    0.568737    0.210661  -0.000181244
3220   0.0299707    0.569005   -0.274149  -9.62262e-05
3230   0.0312907    0.569592   -0.141779  0.000404303
3240   0.0218847    0.565413    -0.97641  0.000404679
3250   0.0231971    0.565996     1.26682  -8.12081e-05
3260   0.0235088    0.566134    -1.90115  3.34505e-05
3270   0.0225281    0.565698     0.87079  -6.72766e-05
3280   0.0248544    0.566732   0.0781201  6.24807e-05
3290   0.0212784    0.565143    -2.20961  0.000228231
3300   0.0202898    0.564704   -0.317957  0.000156836
3310   0.0181417    0.563749    0.914339  -5.27279e-05
3320   0.0213443    0.565172   -0.759431  -0.0001105
3330   0.0203517    0.564731   -0.670225  1.22949e-05
3340   0.0210984    0.565063   -0.757971  5.19836e-06
3350   0.0202478    0.564685    -0.49465  0.000187154
3360   0.0173553      0.5634    0.386495  0.00020947
3370   0.0160584    0.562824     1.44218  -0.000133111
3380   0.0200176    0.564583    0.340882  9.36573e-05
3390   0.0141852    0.561992    0.562415  0.000210436
3400   0.0158089    0.562713     -1.1985  -5.98446e-05
3410   0.0153821    0.562523    0.957503  0.000189669
3420   0.0120155    0.561028  -0.0981862  0.000204734
3430   0.0112874    0.560704    0.868555  -0.0001335
3440   0.0146855    0.562214   -0.627922  -8.93108e-05
3450   0.0130737    0.561498   -0.406089  -7.5178e-05
3460    0.016189    0.562882    0.251934  -0.000178729
3470   0.0166482    0.563086   -0.848122  6.5271e-05
3480   0.0148836    0.562302    0.164619  0.000184162
3490    0.012965    0.561449   -0.364257  -4.59198e-05
3500    0.015802     0.56271    -1.59673  0.000133118
3510   0.0103026    0.560266   -0.408022  0.000274694
3520   0.0103081    0.560269    0.252063  -0.000179943
3530   0.0139015    0.561866   -0.804657  -0.000210174
3540   0.0145116    0.562137   -0.364473  -8.62591e-06
3550    0.014074    0.561942   0.0303156  0.000133929
3560    0.011833    0.560946    0.603128  5.14602e-05
3570   0.0130448    0.561485    -1.15744  0.000119689
3580  0.00943925    0.559883   -0.452991  0.000459171
3590  0.00386139    0.557405    0.603687  7.10329e-06
3600  0.00929718     0.55982    -0.58609  -2.98485e-05
3610  0.00445836     0.55767    -1.46436  0.000363381
3620  0.00202957    0.556591    -1.55275  7.93501e-06
3630  0.00429966    0.557599    0.206535  -0.000143742
3640  0.00490442    0.557868    -1.24579  0.000122191
3650  0.00185584    0.556513   -0.938487  3.07742e-05
3660  0.00428893    0.557595    -1.86353  -2.21818e-05
3670  0.00229948    0.556711    -1.11458  0.000260507
3680  -0.000921213     0.55528   -0.497787  -2.99559e-05
3690  0.00289859    0.556977    -2.12728  7.79483e-05
3700  -0.00248018    0.554587    0.337744  0.00030041
3710  -0.00310961    0.554307    -1.02735  1.68359e-05
3720  -0.0028169    0.554437    -1.90673  -0.000214386
3730  0.00117811    0.556212    -1.86353  -0.000392451
3740  0.00503213    0.557925   -0.984401  3.95275e-05
3750  0.000387561    0.555861   -0.147881  0.00020947
3760  0.000842735    0.556063    -1.64367  0.000264907
3770  -0.00491059    0.553507   -0.102312  0.000140865
3780  -0.00197456    0.554812   -0.411976  -9.93855e-05
3790  -0.00292288     0.55439    0.599863  0.000188549
3800  -0.00574554    0.553136    0.336541  0.000126524
3810  -0.00545336    0.553266   -0.807063  -0.000209248
3820  -0.00156058    0.554996    0.379576  -0.000248843
3830  -0.000476503    0.555477    0.115054  0.000221134
3840  -0.00598326     0.55303   -0.060996  9.02164e-06
3850  -0.000656936    0.555397    -2.12943  0.000151677
3860  -0.00901681    0.551683   -0.720178  0.00015104
3870  -0.00367774    0.554055   -0.413651  -0.000179205
3880  -0.0054327    0.553275    -1.24944  -6.24472e-06
3890  -0.00355285     0.55411    0.862195  -0.000101076
3900  -0.00341118    0.554173    0.685459  0.000255752
3910  -0.00866788    0.551838    0.774493  0.000112975
3920  -0.00567068    0.553169  -0.0612959  -0.000515286
3930  0.00163785    0.556417    -1.20705  8.18453e-05
3940  -0.00730759    0.552442    -0.54572  0.000448399
3950  -0.00733013    0.552432   -0.457761  -0.00034195
3960  -0.000468588    0.555481    0.376826  -6.18368e-05
3970  -0.00609339    0.552982   -0.854825  0.000121628
3980  -0.00290114      0.5544   -0.459392  -0.000199046
3990  -0.00211247     0.55475    -0.50363  0.000203084
4000  -0.00696282    0.552595   0.0255464  0.000154843
4010  -0.00520934    0.553374    0.112646  -0.000110949
4020  -0.00474384    0.553581  -0.0640462  6.67869e-05
4030  -0.00654508    0.552781   -0.591934  0.000253397
4040  -0.00981178    0.551329    0.112905  0.000107844
4050  -0.00870195    0.551823   -0.590989  -0.000436828
4060  -0.00107522    0.555211   -0.108929  -0.00020945
4070  -0.00451296    0.553684    -1.16466  2.57972e-05
4080  -0.00159116    0.554982   -0.241556  0.000394631
4090  -0.0124056    0.550177   0.0243859  0.00068166
4100  -0.0152244    0.548925   0.0249444  -3.78774e-05
4110   -0.011648    0.550514   -0.459565  7.77202e-05
4120  -0.0167788    0.548234    0.684815  4.43301e-05
4130  -0.0125346     0.55012   -0.196502  -0.000185819
4140  -0.0130624    0.549885     0.72729  -8.76675e-05
4150  -0.0107813    0.550899     0.59432  -0.00019537
4160  -0.00915498    0.551621  -0.0665386  0.000309868
4170  -0.0169786    0.548145    -1.38422  6.08642e-05
4180  -0.0103723     0.55108   -0.857533  -9.58238e-05
4190  -0.0150622    0.548997    -1.69263  0.000194693
4200  -0.0142661     0.54935    -1.60506  -0.000138229
4210  -0.0122976    0.550225    -2.17805  0.000304777
4220  -0.0203617    0.546642      -0.636  0.000506097
4230  -0.0224195    0.545728   -0.328613  -0.000129636
4240  -0.0177689    0.547794    -2.08966  -8.74529e-05
4250  -0.0206705    0.546505   -0.505349  3.79177e-05
4260  -0.0185273    0.547457    -0.81351  4.69393e-05
4270  -0.0216093    0.546088    -1.20946  0.000325644
4280  -0.0250402    0.544563     -1.4291  0.000157379
4290  -0.0247568    0.544689    -1.29707  3.94805e-05
4300  -0.0258298    0.544212    -1.56207  -0.000376923
4310  -0.0172184    0.548039     -2.2679  -0.000121997
4320  -0.0233898    0.545297    -1.87057  0.000532954
4330  -0.0278775    0.543303     -1.6499  5.29224e-06
4340  -0.0234957     0.54525    -1.95922  -0.00015652
4350   -0.024747    0.544694     -3.2352  0.000253981
4360  -0.0285753    0.542993    -3.27858  0.000289014
4370  -0.0305273    0.542125    -2.44261  0.000152523
4380  -0.0316258    0.541637    -1.69517  6.6136e-06
4390  -0.0306596    0.542067    -1.29944  -4.50008e-05
4400  -0.0307257    0.542037    -1.38718  -0.000244201
4410  -0.0257756    0.544237   -0.860798  -2.7957e-05
4420  -0.0301666    0.542286    -1.74164  0.000405149
4430  -0.0338786    0.540636    -1.91649  0.000137042
4440  -0.0329074    0.541068     -1.0816  0.000111855
4450  -0.0361157    0.539642    -1.12468  0.000225373
4460  -0.0374149    0.539065   -0.464248  -3.59926e-05
4470  -0.0353958    0.539962    -1.65282  -0.000176006
4480  -0.0338948    0.540629    -1.16939  -1.16713e-06
4490  -0.0353725    0.539973    -1.65385  0.000227144
4500  -0.0384377    0.538611    -2.22581  7.81026e-05
4510  -0.0369345    0.539279    -1.34599  0.00027295
4520  -0.0438967    0.536185    -1.30055  0.000246623
4530   -0.041867    0.537087    -2.26974  -0.000274177
4540  -0.0384131    0.538622    -2.13836  -0.000221798
4550   -0.037431    0.539058    -1.87517  -0.000169493
4560  -0.0350233    0.540128    -3.10828  0.00020403
4570  -0.0415116    0.537245    -2.97407  9.68836e-05
4580  -0.0369609    0.539267    -1.74379  -0.000446957
4590  -0.0325725    0.541217    -2.49226  7.07444e-05
4600  -0.0383758    0.538638    -2.57885  0.000249487
4610  -0.0375622       0.539    -3.63497  0.000206102
4620  -0.0424979    0.536807    -3.10652  6.22526e-05
4630  -0.0388073    0.538446     -3.7682  -0.000288545
4640   -0.036727    0.539371    -2.88825  0.000433287
4650   -0.047473    0.534596    -2.88602  0.00032502
4660  -0.0432274    0.536483    -2.97583  0.00012808
4670  -0.0500346    0.533458    -2.57851  0.000227526
4680  -0.0477779    0.534461    -1.30266  -0.000726956
4690  -0.0354955    0.539918    -1.96627  -9.0109e-05
4700  -0.0459757    0.535261    -2.66836  0.000483258
4710  -0.0451606    0.535624    -2.62498  -0.000173215
4720  -0.0425114    0.536801    -1.92096  0.000184175
4730  -0.0488441    0.533987    -2.22847  0.000275935
4740  -0.0480301    0.534349    -1.08478  -0.000146023
4750  -0.0459237    0.535285     -1.2613  -0.000146446
4760  -0.0451012     0.53565    -2.53792  0.000241163
4770  -0.0507469    0.533141    -2.53697  -3.64354e-05
4780  -0.0443725    0.535974    -1.12983  -0.000146761
4790  -0.0478117    0.534446    -2.84548  0.000298083
4800  -0.0503341    0.533325   -0.997852  9.43482e-05
4810  -0.0496987    0.533607    -2.18466  -0.000502435
4820  -0.0402855     0.53779    -1.21913  -0.000297788
4830  -0.0437429    0.536253    -2.31884  0.000440155
4840  -0.0490886    0.533878    -2.62558  0.000526186
4850  -0.0542666    0.531578    -1.13009  0.000198972
4860   -0.053068     0.53211    -1.70222  -0.000120092
4870  -0.0518648    0.532645   -0.734316  0.000162765
4880  -0.0563233    0.530664    -1.87835  0.000125002
4890  -0.0543648    0.531534    -1.52651  -0.000196262
4900  -0.0523981    0.532408    -2.58319  -0.000168534
4910  -0.0509942    0.533032    -3.63935  -0.000169258
4920  -0.0490129    0.533912    -2.45185  8.76542e-05
4930  -0.0527473    0.532253    -1.39612  8.74328e-05
4940  -0.0507616    0.533135    -2.10023  0.000126652
4950  -0.0552803    0.531127    -2.49549  5.93549e-05
4960  -0.0519487    0.532608    -3.46498  0.000185322
4970  -0.0589867     0.52948    -2.84763  2.03252e-06
4980  -0.0519893    0.532589    -3.15768  -0.000102719
4990  -0.0569324    0.530393    -2.23277  -0.000207471
