Time   Number   
ps   
0          24          23
10          19          28
20          24          29
30          22          22
40          22          27
50          25          19
60          22          26
70          25          26
80          23          25
90          25          25
100          24          24
110          22          22
120          21          29
130          24          26
140          23          20
150          23          31
160          20          29
170          27          15
180          20          25
190          25          20
200          24          23
210          30          16
220          27          21
230          29          20
240          29          18
250          26          21
260          20          18
270          20          28
280          24          24
290          25          19
300          23          28
310          22          25
320          25          26
330          23          23
340          24          23
350          25          24
360          23          25
370          26          20
380          23          23
390          25          26
400          22          26
410          23          24
420          25          21
430          27          23
440          25          21
450          25          23
460          26          21
470          23          26
480          27          20
490          25          26
500          24          26
510          27          24
520          27          20
530          30          20
540          25          26
550          25          23
560          28          18
570          30          20
580          28          22
590          26          21
600          24          24
610          27          20
620          26          25
630          28          20
640          26          27
650          26          22
660          26          21
670          26          25
680          28          23
690          26          27
700          26          21
710          26          22
720          22          28
730          31          17
740          27          21
750          25          20
760          23          22
770          24          22
780          22          29
790          22          23
800          25          22
810          25          23
820          23          23
830          26          26
840          24          23
850          25          26
860          25          25
870          25          22
880          27          21
890          24          24
900          25          25
910          27          25
920          27          26
930          30          22
940          29          17
950          27          20
960          23          31
970          25          28
980          28          26
990          26          26
1000          27          21
1010          25          25
1020          27          23
1030          29          25
1040          27          25
1050          24          26
1060          29          24
1070          28          22
1080          25          28
1090          27          23
1100          24          29
1110          22          31
1120          24          22
1130          25          28
1140          26          21
1150          26          24
1160          25          24
1170          25          25
1180          25          25
1190          26          26
1200          25          25
1210          26          23
1220          26          23
1230          23          28
1240          20          24
1250          27          23
1260          24          23
1270          22          28
1280          29          23
1290          25          28
1300          25          28
1310          21          30
1320          27          26
1330          24          22
1340          25          28
1350          27          29
1360          25          28
1370          23          24
1380          24          27
1390          23          24
1400          24          29
1410          23          30
1420          29          25
1430          26          21
1440          22          25
1450          24          27
1460          25          18
1470          23          26
1480          26          25
1490          26          18
1500          23          27
1510          28          23
1520          26          26
1530          22          28
1540          22          24
1550          21          29
1560          30          27
1570          25          22
1580          23          25
1590          27          23
1600          27          28
1610          19          30
1620          28          22
1630          29          22
1640          26          29
1650          25          20
1660          21          29
1670          26          20
1680          25          20
1690          27          24
1700          25          27
1710          23          24
1720          28          22
1730          23          23
1740          22          21
1750          22          25
1760          26          22
1770          24          19
1780          27          22
1790          20          28
1800          24          22
1810          27          24
1820          26          23
1830          27          26
1840          27          20
1850          24          20
1860          24          26
1870          24          22
1880          30          19
1890          25          22
1900          24          22
1910          23          28
1920          22          23
1930          19          24
1940          26          19
1950          22          32
1960          24          21
1970          22          25
1980          25          24
1990          22          24
2000          17          31
2010          23          26
2020          20          28
2030          23          24
2040          25          18
2050          23          26
2060          26          23
2070          23          26
2080          26          27
2090          27          22
2100          26          22
2110          26          25
2120          25          26
2130          24          24
2140          25          24
2150          23          27
2160          24          28
2170          21          28
2180          18          32
2190          25          25
2200          19          31
2210          21          26
2220          23          23
2230          23          24
2240          22          26
2250          25          22
2260          19          26
2270          25          25
2280          21          23
2290          22          26
2300          23          24
2310          24          25
2320          26          24
2330          25          25
2340          25          25
2350          26          21
2360          26          26
2370          26          24
2380          27          21
2390          22          27
2400          24          22
2410          23          27
2420          19          26
2430          19          27
2440          27          23
2450          23          29
2460          21          26
2470          22          21
2480          24          20
2490          26          19
2500          22          31
2510          23          27
2520          23          23
2530          22          25
2540          20          25
2550          25          23
2560          26          20
2570          27          24
2580          26          20
2590          24          30
2600          26          23
2610          27          16
2620          25          25
2630          23          29
2640          26          22
2650          24          23
2660          20          35
2670          20          30
2680          20          30
2690          19          28
2700          18          24
2710          18          25
2720          24          23
2730          24          25
2740          21          23
2750          19          28
2760          24          17
2770          24          25
2780          19          28
2790          19          28
2800          23          25
2810          24          27
2820          20          27
2830          23          21
2840          22          23
2850          24          24
2860          20          25
2870          23          25
2880          22          25
2890          24          24
2900          26          26
2910          19          32
2920          22          28
2930          24          25
2940          25          21
2950          20          29
2960          24          30
2970          26          27
2980          24          33
2990          19          30
3000          26          26
3010          31          21
3020          24          24
3030          25          28
3040          24          29
3050          22          28
3060          22          29
3070          22          26
3080          19          31
3090          20          23
3100          24          23
3110          21          30
3120          22          28
3130          21          23
3140          23          20
3150          22          28
3160          21          24
3170          24          24
3180          22          31
3190          25          24
3200          25          28
3210          24          22
3220          26          20
3230          21          24
3240          20          23
3250          24          24
3260          24          23
3270          23          29
3280          23          26
3290          22          28
3300          24          27
3310          28          17
3320          23          23
3330          22          18
3340          21          22
3350          23          19
3360          25          25
3370          25          23
3380          27          20
3390          22          27
3400          17          24
3410          24          19
3420          19          23
3430          19          29
3440          23          20
3450          22          25
3460          21          19
3470          24          22
3480          24          22
3490          21          19
3500          22          23
3510          23          25
3520          22          21
3530          21          21
3540          20          23
3550          23          16
3560          21          19
3570          23          17
3580          24          22
3590          23          23
3600          25          24
3610          22          26
3620          23          24
3630          22          22
3640          22          27
3650          25          23
3660          25          25
3670          25          24
3680          25          22
3690          27          27
3700          27          23
3710          28          23
3720          27          18
3730          25          25
3740          25          23
3750          22          30
3760          23          26
3770          22          24
3780          25          26
3790          25          24
3800          28          23
3810          26          24
3820          28          27
3830          27          23
3840          23          27
3850          23          23
3860          23          33
3870          28          30
3880          23          26
3890          22          25
3900          23          20
3910          26          22
3920          27          29
3930          32          18
3940          22          23
3950          24          27
3960          26          18
3970          23          20
3980          27          23
3990          25          27
4000          25          29
4010          27          22
4020          26          24
4030          26          22
4040          29          20
4050          19          25
4060          26          24
4070          25          21
4080          28          26
4090          27          25
4100          25          21
4110          21          26
4120          26          19
4130          23          21
4140          26          20
4150          22          27
4160          25          22
4170          20          29
4180          22          23
4190          22          26
4200          23          23
4210          23          23
4220          26          18
4230          23          27
4240          24          22
4250          22          29
4260          21          28
4270          26          18
4280          22          26
4290          22          27
4300          25          21
4310          21          26
4320          19          26
4330          19          28
4340          20          28
4350          20          28
4360          22          21
4370          25          26
4380          24          23
4390          24          27
4400          26          20
4410          26          25
4420          26          29
4430          23          27
4440          21          33
4450          28          24
4460          27          25
4470          23          26
4480          23          26
4490          20          29
4500          24          26
4510          22          34
4520          28          25
4530          25          25
4540          26          23
4550          23          29
4560          25          28
4570          21          29
4580          22          25
4590          25          25
4600          28          22
4610          24          25
4620          25          25
4630          23          25
4640          24          25
4650          21          27
4660          23          28
4670          27          25
4680          24          28
4690          23          31
4700          22          29
4710          24          29
4720          25          24
4730          22          24
4740          24          26
4750          23          23
4760          25          24
4770          23          29
4780          27          27
4790          21          29
4800          18          30
4810          23          27
4820          25          23
4830          23          28
4840          22          31
4850          26          28
4860          22          26
4870          22          32
4880          24          29
4890          24          24
4900          19          32
4910          23          29
4920          25          19
4930          23          26
4940          22          26
4950          23          21
4960          19          27
4970          24          23
4980          22          29
4990          26          19
5000          26          21
5010          26          18
5020          18          23
5030          21          27
5040          20          30
5050          23          28
5060          18          32
5070          21          26
5080          23          31
5090          25          26
5100          21          26
5110          22          29
5120          22          27
5130          27          23
5140          24          26
5150          21          28
5160          18          28
5170          20          24
5180          22          25
5190          22          24
5200          22          24
5210          21          25
5220          23          22
5230          21          27
5240          25          25
5250          20          29
5260          22          28
5270          21          26
5280          20          25
5290          25          21
5300          23          24
5310          24          25
5320          24          24
5330          25          23
5340          22          20
5350          25          26
5360          24          24
5370          25          25
5380          22          25
5390          22          24
5400          22          24
5410          19          27
5420          26          25
5430          23          23
5440          22          27
5450          18          28
5460          26          26
5470          24          21
5480          22          22
5490          22          26
5500          24          25
5510          23          25
5520          19          28
5530          23          24
5540          19          29
5550          23          26
5560          21          30
5570          19          29
5580          22          31
5590          23          24
5600          23          27
5610          25          27
5620          21          27
5630          25          31
5640          24          33
5650          22          29
5660          25          33
5670          25          25
5680          20          30
5690          26          30
5700          26          25
5710          25          22
5720          18          31
5730          20          29
5740          21          30
5750          25          28
5760          26          29
5770          24          26
5780          25          32
5790          23          29
5800          25          29
5810          22          33
5820          23          30
5830          26          28
5840          25          27
5850          25          32
5860          23          33
5870          21          31
5880          27          27
5890          23          34
5900          25          33
5910          26          24
5920          27          27
5930          23          30
5940          23          27
5950          23          28
5960          22          29
5970          26          27
5980          25          33
5990          24          36
6000          24          34
6010          24          22
6020          21          28
6030          25          27
6040          23          26
6050          22          35
6060          25          27
6070          20          27
6080          24          24
6090          24          28
6100          22          28
6110          27          29
6120          22          27
6130          20          35
6140          23          28
6150          24          29
6160          22          27
6170          22          23
6180          21          29
6190          23          28
6200          23          31
6210          27          21
6220          26          25
6230          25          26
6240          24          28
6250          22          27
6260          25          24
6270          25          25
6280          25          25
6290          27          28
6300          25          21
6310          22          29
6320          24          27
6330          30          24
6340          24          29
6350          25          24
6360          25          26
6370          25          24
6380          25          26
6390          24          25
6400          21          26
6410          24          27
6420          24          21
6430          27          26
6440          23          32
6450          25          24
6460          20          26
6470          23          25
6480          22          28
6490          24          25
6500          23          32
6510          26          27
6520          25          27
6530          25          24
6540          24          26
6550          28          24
6560          25          26
6570          27          24
6580          22          30
6590          29          24
6600          29          24
6610          24          26
6620          26          26
6630          23          26
6640          27          24
6650          23          27
6660          26          26
6670          27          23
6680          24          27
6690          25          29
6700          25          29
6710          24          22
6720          27          22
6730          24          25
6740          24          22
6750          21          25
6760          23          26
6770          25          26
6780          26          26
6790          25          24
6800          24          22
6810          24          25
6820          26          29
6830          18          35
6840          22          27
6850          24          27
6860          22          30
6870          28          25
6880          22          29
6890          26          27
6900          24          26
6910          20          28
6920          24          21
6930          25          26
6940          21          28
6950          21          26
6960          27          23
6970          24          28
6980          23          27
6990          27          28
7000          24          25
7010          24          28
7020          24          25
7030          24          25
7040          29          24
7050          27          23
7060          25          25
7070          23          29
7080          23          22
7090          24          27
7100          21          29
7110          20          26
7120          23          27
7130          25          26
7140          22          27
7150          23          26
7160          24          26
7170          24          24
7180          22          25
7190          24          24
7200          27          23
7210          19          29
7220          20          27
7230          26          22
7240          24          28
7250          23          23
7260          21          31
7270          24          25
7280          22          28
7290          23          27
7300          25          25
7310          24          24
7320          24          30
7330          23          23
7340          22          26
7350          22          23
7360          21          23
7370          26          26
7380          24          23
7390          25          26
7400          20          23
7410          25          22
7420          19          28
7430          20          25
7440          21          25
7450          24          20
7460          23          21
7470          18          25
7480          21          27
7490          23          22
7500          22          23
7510          26          22
7520          21          25
7530          24          18
7540          24          19
7550          26          20
7560          21          25
7570          21          19
7580          19          29
7590          23          24
7600          22          17
7610          24          23
7620          25          22
7630          18          30
7640          22          24
7650          17          31
7660          21          25
7670          22          29
7680          20          28
7690          23          21
7700          20          30
7710          18          24
7720          24          19
7730          24          21
7740          22          30
7750          21          22
7760          22          28
7770          24          23
7780          21          24
7790          20          26
7800          23          24
7810          22          26
7820          23          19
7830          20          25
7840          22          19
7850          22          24
7860          22          19
7870          22          20
7880          24          22
7890          21          23
7900          18          28
7910          21          22
7920          20          33
7930          19          28
7940          21          27
7950          20          28
7960          17          25
7970          17          28
7980          22          20
7990          18          29
8000          20          27
8010          27          24
8020          23          24
8030          23          28
8040          23          25
8050          20          25
8060          23          26
8070          24          19
8080          23          26
8090          27          28
8100          26          26
8110          23          24
8120          22          22
8130          20          29
8140          21          30
8150          27          26
8160          22          26
8170          23          27
8180          22          24
8190          28          24
8200          25          24
8210          22          28
8220          26          24
8230          27          30
8240          26          21
8250          26          27
8260          26          25
8270          26          21
8280          21          24
8290          26          21
8300          19          29
8310          22          22
8320          20          31
8330          21          23
8340          21          22
8350          22          27
8360          20          27
8370          22          25
8380          20          25
8390          18          24
8400          21          23
8410          21          24
8420          24          25
8430          21          24
8440          17          30
8450          24          20
8460          20          26
8470          24          20
8480          24          20
8490          22          28
8500          23          25
8510          21          26
8520          26          18
8530          21          25
8540          26          22
8550          25          19
8560          21          25
8570          21          26
8580          17          30
8590          23          23
8600          21          22
8610          20          25
8620          22          22
8630          20          26
8640          20          25
8650          21          19
8660          24          24
8670          21          22
8680          21          23
8690          20          22
8700          21          24
8710          20          25
8720          17          22
8730          20          26
8740          16          25
8750          22          23
8760          18          22
8770          18          25
8780          20          21
8790          20          23
8800          17          26
8810          20          24
8820          24          22
8830          22          24
8840          22          24
8850          20          21
8860          18          28
8870          21          23
8880          20          25
8890          20          25
8900          25          26
8910          25          19
8920          24          24
8930          24          27
8940          23          19
8950          19          26
8960          22          26
8970          21          23
8980          20          22
8990          22          27
9000          24          23
9010          17          26
9020          27          19
9030          22          24
9040          21          30
9050          17          27
9060          21          24
9070          20          23
9080          24          30
9090          23          21
9100          21          21
9110          22          21
9120          21          25
9130          17          26
9140          23          25
9150          16          26
9160          22          20
9170          21          26
9180          18          26
9190          20          25
9200          25          19
9210          25          24
9220          20          18
9230          20          20
9240          23          17
9250          19          24
9260          24          20
9270          18          21
9280          21          16
9290          22          23
9300          21          22
9310          20          20
9320          23          20
9330          21          27
9340          25          21
9350          23          25
9360          21          27
9370          22          21
9380          20          22
9390          24          23
9400          22          23
9410          22          21
9420          19          19
9430          21          20
9440          19          21
9450          26          16
9460          21          19
9470          17          23
9480          21          21
9490          18          21
9500          20          17
9510          21          19
9520          19          27
9530          15          30
9540          23          22
9550          20          24
9560          21          23
9570          20          23
9580          21          24
9590          21          21
9600          19          25
9610          23          24
9620          22          25
9630          22          26
9640          24          20
9650          22          18
9660          20          25
9670          20          22
9680          19          26
9690          19          27
9700          16          23
9710          18          34
9720          22          23
9730          26          27
9740          24          24
9750          22          26
9760          21          31
9770          23          17
9780          25          25
9790          22          25
9800          24          20
9810          22          22
9820          20          23
9830          23          25
9840          22          25
9850          24          23
9860          19          26
9870          23          26
9880          20          30
9890          27          24
9900          25          22
9910          26          20
9920          19          30
9930          24          25
9940          25          19
9950          20          26
9960          21          24
9970          22          23
9980          20          22
9990          22          25
10000          22          24
