Time   C(t)   
ps   
0           1           1  6.11086e-11   0.0295317
10    0.702051    0.920271   -0.454153   0.0160631
20    0.678738    0.914032    -1.59476  0.00259453
30     0.65016    0.906385   -0.739675  0.00202495
40    0.638239    0.903195   -0.455267  0.00145471
50    0.621066      0.8986    -1.68965   0.0011084
60    0.616071    0.897263    -2.45077  0.00111127
70    0.598841    0.892652    -1.68947  0.00137514
80    0.588568    0.889903       -0.36  0.00076578
90    0.583525    0.888554    -1.02445  0.000574923
100    0.577069    0.886826   -0.264733  0.000803989
110    0.567445    0.884251   -0.264733  0.000507042
120    0.566929    0.884113    -1.31118  0.000684214
130    0.553761    0.880589   -0.645615  0.00112464
140    0.544436    0.878094   -0.170302  0.000581393
150    0.542133    0.877478   -0.550905  0.000300938
160    0.538417    0.876483   -0.170951  0.000636655
170      0.5294     0.87407   -0.456288  0.00072602
180    0.523897    0.872598    0.114014  0.000427163
190    0.520857    0.871784   -0.360742  5.6532e-05
200    0.522766    0.872295   -0.741531  0.000393465
210    0.512987    0.869678    -1.02696  0.000305036
220    0.516665    0.870663    -1.40729  0.000270778
230    0.507572    0.868229   -0.931137  0.000928102
240    0.498103    0.865696    -3.11661  0.000449841
250    0.498575    0.865822   -0.835963  0.00032663
260    0.491571    0.863947    -1.59708  0.000112987
270    0.496315    0.865217   -0.741995  -8.24258e-05
280    0.493219    0.864389   -0.266218  0.000256388
290    0.491188    0.863845   -0.171694  0.000131831
300    0.490583    0.863683    -1.12223  0.000722712
310    0.476733    0.859977     -0.6471  0.000598098
320    0.478621    0.860482    -1.12213  0.000169741
330    0.473338    0.859069    -1.12167  0.000421084
340    0.470199    0.858229    -1.50209  0.000475991
350    0.463819    0.856521    -1.21601  0.000440797
360    0.461383    0.855869    -1.78677  0.000243871
370    0.458941    0.855216   -0.836148  -0.000116128
380    0.463705    0.856491   -0.551926  1.02684e-05
390    0.458736    0.855161    0.778747  0.000605895
400    0.451588    0.853248   -0.741717  0.000371981
410    0.451296     0.85317   -0.741531  0.000228301
420    0.447022    0.852026   -0.647749  0.00024671
430    0.446362     0.85185   -0.741902  -0.000224213
440    0.451506    0.853226   -0.552483  0.000193219
450    0.442498    0.850816     1.15833  0.000574622
460    0.440013    0.850151    0.111786   0.0007036
470    0.428426     0.84705   -0.457401  0.000686337
480    0.426287    0.846478   -0.837726  0.000177716
490    0.424871    0.846099  -0.0768909  0.000397219
500    0.418342    0.844352  -0.0780047  0.000324614
510    0.418379    0.844362    0.873086  -0.000149952
520    0.421341    0.845155    0.492575  -7.68125e-05
530    0.419915    0.844773   -0.362877  0.000307731
540    0.415187    0.843508    -1.21777  0.000620173
550    0.407512    0.841454    -0.45703  0.000364117
560    0.407904    0.841559    0.397494  0.000494054
570    0.397631     0.83881   -0.457401  0.000825876
580    0.391387    0.837139     0.39768  0.000551401
590    0.386603    0.835859      0.8729  0.000331341
600     0.38476    0.835366   -0.837726  3.67299e-05
610    0.385868    0.835662   -0.742923  -1.85102e-05
620     0.38513    0.835465   -0.553318  0.000129391
630     0.38328     0.83497    -0.74348  -5.56514e-05
640    0.386243    0.835763    0.016891  -0.000296615
650    0.389213    0.836557    0.207332  0.000333969
660    0.379564    0.833975    0.777541  0.000315449
670    0.382904    0.834869     0.39703  -9.24826e-05
680    0.381414     0.83447     1.06186  0.000205056
690    0.378803    0.833771     1.53652  0.00042917
700     0.37283    0.832173   -0.553503  0.000560577
710    0.367591    0.830771   -0.363248  -9.21816e-05
720    0.374674    0.832667    0.680696  -0.000203943
730     0.37167    0.831863     1.25183  0.000544138
740    0.363791    0.829754    0.777169  0.000338793
750    0.364894     0.83005      0.3013  2.09719e-05
760    0.363372    0.829642    0.111694  0.000434281
770    0.356208    0.827725   -0.743944  0.000510125
780    0.353169    0.826912    0.871879  0.000586727
790    0.344474    0.824585     0.49174  0.000229582
800    0.348577    0.825683    0.871694  -7.11441e-05
810    0.345897    0.824966    0.301206  0.000419459
820    0.340188    0.823438    0.966589  0.000609347
830     0.33371    0.821705    0.491554  -0.0001087
840    0.342362     0.82402    0.775963  -0.000411406
850    0.341938    0.823907      1.2509  0.000459898
860    0.333164    0.821559     2.01239  0.000555454
870    0.330829    0.820934     1.53698  0.000290802
880    0.327348    0.820003     1.25239  -8.92863e-05
890    0.332615    0.821412    0.871787  0.000234982
900    0.322649    0.818745    0.491555  0.000463539
910    0.323344    0.818931     0.77652  6.79344e-06
920    0.322513    0.818709     2.10682  0.000178751
930    0.319769    0.817974     1.53596  8.34063e-05
940    0.320845    0.818262     1.15582  -1.20059e-05
950    0.320009    0.818039    0.395824  0.000352268
960    0.313799    0.816377    0.300186  8.39621e-05
970     0.31833    0.817589    0.585243  7.84099e-06
980    0.313642    0.816335   -0.269745  0.000411473
990      0.3101    0.815387    0.110209  0.000797866
1000    0.297685    0.812065    0.301021  0.000548416
1010    0.299132    0.812452    0.870766  -0.000106205
1020    0.299809    0.812633    0.965661  0.000434805
1030    0.290436    0.810125     1.53606  0.000396527
1040    0.291879    0.810511    0.966218  -0.000202619
1050    0.294488    0.811209     1.34571  0.000301282
1060    0.285853    0.808899     1.63077  0.000204244
1070    0.290403    0.810116    0.870394  -8.61794e-05
1080    0.287577     0.80936     2.29615  0.000205168
1090      0.2863    0.809018     1.25053  0.000439572
1100    0.278785    0.807007    0.680232  0.000713257
1110    0.272035    0.805201    0.584965  0.000421965
1120    0.270346    0.804749    0.490255  -4.59969e-05
1130    0.272955    0.805447    0.584872  -0.00016326
1140    0.273611    0.805623     1.44014  0.000522065
1150    0.262513    0.802653    0.774385  0.000444083
1160    0.264729    0.803246    0.869745  -4.50939e-05
1170    0.263415    0.802894    0.584409  0.000249495
1180    0.259739    0.801911    0.965012  1.3721e-05
1190    0.263141    0.802821     0.86993  -0.000143491
1200    0.262609    0.802679     1.34469  7.29695e-05
1210    0.261681    0.802431     2.29494  0.000231139
1220    0.257987    0.801442      1.9149  0.000528069
1230     0.25112    0.799604     1.72501  0.000509313
1240      0.2478    0.798716     1.72464  0.000510716
1250    0.240906    0.796871     1.72501  0.000412464
1260    0.239551    0.796509    0.679025  -0.000202061
1270    0.244947    0.797952     1.53401  0.000374565
1280     0.23206    0.794504     1.62947  0.000354484
1290    0.237857    0.796055     1.24942  -0.000161889
1300    0.235297     0.79537      2.0097  0.000276279
1310    0.232332    0.794577    0.583852  0.000157056
1320    0.232156     0.79453    0.488863  0.00029754
1330    0.226381    0.792984     1.81972  0.000578252
1340    0.220591    0.791435     1.24951  0.000278908
1350    0.220803    0.791492    0.393411  0.000259785
1360    0.215396    0.790045    0.298887  0.000239972
1370    0.216003    0.790207    0.963805  -0.000402853
1380    0.223453    0.792201      1.0587  -0.000302685
1390    0.222057    0.791827     1.62835  0.000139704
1400    0.220659    0.791453     1.53364  0.000382238
1410    0.214412    0.789782     1.91425  0.00036267
1420    0.213405    0.789512     1.43875  6.03408e-05
1430    0.213205    0.789459     1.53336  0.000141498
1440    0.210575    0.788755     1.53336  2.00137e-05
1450    0.212805    0.789352     1.05824  -4.05505e-05
1460    0.211386    0.788972     1.05759  6.07751e-05
1470     0.21159    0.789026    0.297587  0.000122119
1480    0.208944    0.788318    0.773272  -0.0001427
1490    0.214444     0.78979    0.677726  0.000102217
1500      0.2069    0.787771     1.15341  0.000183406
1510    0.210775    0.788808     1.43791  4.79072e-07
1520     0.20689    0.787769    0.582738  0.00036854
1530    0.203405    0.786836    0.488677  0.000143936
1540    0.204011    0.786998    0.298329  0.000288207
1550    0.197641    0.785294    0.298422  0.000391248
1560    0.196186    0.784904     1.05824  -3.95484e-05
1570    0.198431    0.785505     1.43865  0.000454819
1580     0.18709     0.78247     1.62872  0.000537591
1590     0.18768    0.782628     1.34348  -1.77637e-05
1600    0.187445    0.782565     1.15304  -0.000286581
1610    0.193411    0.784162      1.4381  -0.000245529
1620    0.192356    0.783879     1.24831  0.000188597
1630    0.189639    0.783153    0.868074  0.000417097
1640    0.184014    0.781647    0.962506  0.000355565
1650    0.182528     0.78125    0.677633  0.000502253
1660    0.173969    0.778959    0.962784  0.000648761
1670    0.169553    0.777777    0.963063  4.44353e-06
1680     0.17388    0.778935     1.15285  -0.000412364
1690      0.1778    0.779984    0.962599  0.000129826
1700    0.171283    0.778241    0.867981  0.000485112
1710    0.168098    0.777388     1.34264  0.000235161
1720     0.16658    0.776982     1.43847  0.000298776
1730    0.162122    0.775789     1.05805  0.000152334
1740    0.163533    0.776167     2.00849  0.000174051
1750    0.158641    0.774858     1.53364  4.78558e-05
1760    0.162576    0.775911    0.962227  0.000280289
1770    0.153036    0.773358     1.15295  0.00032232
1780     0.15613    0.774186     1.24812  -9.85302e-05
1790    0.155006    0.773885     1.05768  -3.56048e-05
1800    0.156842    0.774376    0.487285  6.78301e-06
1810    0.154871    0.773849     1.24719  0.000557793
1820    0.145686    0.771391     1.81768  0.00049509
1830    0.144969    0.771199     2.19828  5.05403e-05
1840    0.144675     0.77112     1.43782  9.31732e-05
1850    0.143105      0.7707     1.43819  8.13007e-06
1860    0.144513    0.771077     1.91248  -0.00016229
1870    0.146351    0.771569     1.53271  8.18595e-06
1880    0.144349    0.771033     1.62715  0.00037149
1890    0.138921    0.769581     1.62761  9.38416e-05
1900    0.142472    0.770531     1.34181  -0.000269764
1910    0.144317    0.771024     1.24691  -1.2964e-05
1920    0.142731      0.7706    0.677077  8.28579e-06
1930    0.144151     0.77098    0.677076  0.000159072
1940     0.13955    0.769749     1.05703  0.000396048
1950     0.13623     0.76886    0.677076  9.51558e-05
1960    0.137647     0.76924    0.581903  5.24893e-05
1970     0.13518     0.76858    0.677355  0.000376736
1980    0.130112    0.767223      1.1523  0.000247579
1990    0.130228    0.767255     1.24719  -7.6624e-05
2000    0.131645    0.767633     1.34218  -0.000185189
2010    0.133932    0.768246     1.81722  7.51317e-05
2020    0.130142    0.767231    0.867053  0.000118433
2030    0.131564    0.767612     1.81768  7.55429e-05
2040    0.128631    0.766827     1.43717  9.72606e-05
2050    0.129618    0.767091     1.43791  -0.000208042
2060    0.132792    0.767941     1.53206  -3.34896e-05
2070    0.130288    0.767271     1.91276  0.000250742
2080    0.127777    0.766599     1.72278  0.000163683
2090    0.127015    0.766394     1.53253  -0.000318745
2100    0.134152    0.768304     1.81722  -3.32996e-05
2110    0.127681    0.766573      1.9122  0.000691951
2120    0.120313    0.764601     1.05703  0.000363115
2130    0.120418    0.764629     1.72241  -1.05467e-05
2140    0.120524    0.764658     2.00747  -0.000143112
2150     0.12328    0.765395     2.57805  -0.000231776
2160     0.12516    0.765898      1.8174  3.33224e-05
2170    0.122614    0.765217     2.29262  0.000254929
2180    0.120061    0.764534     2.19773  0.000144582
2190    0.119722    0.764443     1.72204  -0.000277393
2200    0.125609    0.766018    0.866496  5.62206e-05
2210    0.118598    0.764142      1.3419  0.000612811
2220    0.113353    0.762739     1.05684  0.000302039
2230    0.112557    0.762526     2.48278  -0.000255587
2240    0.118464    0.764107    0.866775  -0.000322933
2250    0.119016    0.764254     1.15202  0.000572071
2260    0.107023    0.761045     1.53206  0.000617599
2270    0.106664    0.760949     1.05675  0.000103308
2280    0.104957    0.760492     1.53179  0.000283418
2290    0.100995    0.759432     1.24626  0.000554262
2300   0.0938715    0.757526     1.53206  0.000262346
2310   0.0957485    0.758028     1.91193  1.52692e-05
2320   0.0935661    0.757444     1.05666  -7.58432e-06
2330   0.0959002    0.758069     2.19708  -5.26231e-05
2340   0.0946186    0.757726     2.29169  0.000309746
2350   0.0897053    0.756411     2.00691  0.00019686
2360   0.0906813    0.756672     1.24654  1.58928e-05
2370   0.0893874    0.756326     1.43652  0.000243358
2380   0.0858142     0.75537     1.53123  0.000403354
2390   0.0813204    0.754167     1.43652  0.000313054
2400   0.0795531    0.753694     1.24664  3.99381e-05
2410   0.0805216    0.753953      1.1509  0.000177515
2420   0.0760028    0.752744     1.91146  0.000589912
2430   0.0687233    0.750796     1.43661  0.000384855
2440   0.0683057    0.750684     1.43615  -0.000164885
2450   0.0720211    0.751679    0.580882  6.49076e-05
2460   0.0670075    0.750337    0.961021  0.000156633
2470   0.0688884     0.75084    0.960928  0.000157512
2480   0.0638573    0.749494     1.91155  0.000111283
2490   0.0666627    0.750245     1.43587  0.000320216
2500    0.057453     0.74778     1.24617  0.000412832
2510   0.0584061    0.748035     1.43624  -4.90146e-05
2520   0.0584333    0.748043     1.05629  -0.000234938
2530   0.0631049    0.749293     1.72084  -0.000305013
2540   0.0645335    0.749675     1.43587  0.000392295
2550    0.055259    0.747193       2.102  0.000509168
2560   0.0543502     0.74695      1.5316  0.000230996
2570   0.0506391    0.745957    0.961206  4.4493e-05
2580   0.0534603    0.746712    0.770765  -0.000399601
2590   0.0586311    0.748096     1.53049  -2.17184e-06
2600   0.0535038    0.746723    0.960557  0.000349128
2610   0.0516485    0.746227    0.770951  0.000256299
2620   0.0483778    0.745352     1.34116  -0.000119557
2630   0.0540397    0.746867     1.34088  -0.000307775
2640   0.0545333    0.746999    0.865847  -2.58271e-05
2650   0.0545562    0.747005    0.865847  9.22045e-05
2660   0.0526892    0.746505    0.390627  -2.59606e-05
2670   0.0550754    0.747144    0.960928  -2.57269e-05
2680   0.0532037    0.746643    0.866125  0.000234816
2690   0.0503791    0.745887     1.24636  6.90727e-05
2700   0.0518223    0.746274     1.15118  -0.000120693
2710    0.052793    0.746533     1.72093  0.000236275
2720   0.0470968    0.745009     0.96065  0.000474955
2730   0.0432939    0.743991    0.770209  0.000261422
2740   0.0418683     0.74361    0.865382  0.000477617
2750   0.0337416    0.741435     1.43578  0.000382628
2760   0.0342158    0.741562     1.05573  7.24472e-05
2770   0.0322926    0.741048     1.05592  0.00014456
2780   0.0313246    0.740788    0.580696  0.000529883
2790   0.0216949    0.738212    0.771044  0.000651189
2800   0.0183008    0.737303    0.960835  2.63171e-05
2810   0.0211686    0.738071    0.770858  -6.97854e-05
2820   0.0196965    0.737677    0.770951  -0.000167002
2830   0.0245086    0.738965    0.200743  5.09413e-05
2840   0.0186777    0.737404     1.43643  9.88422e-05
2850   0.0225318    0.738436    0.390534  0.000172648
2860   0.0152247     0.73648    0.105383  0.000634483
2870  0.00984212     0.73504    0.390812  2.74976e-05
2880   0.0146748    0.736333    0.580975  -2.04924e-05
2890    0.010252     0.73515   0.0107655  3.25204e-06
2900   0.0146097    0.736316     1.05573  2.82884e-05
2910   0.0096862    0.734998     1.34107  -9.47325e-05
2920   0.0165044    0.736823     0.77058  -0.000339438
2930    0.016475    0.736815     1.24589  0.000322265
2940   0.0100591    0.735098   0.0108582  -0.000267603
2950    0.021827    0.738247     0.77058  -0.00046413
2960   0.0193417    0.737582    0.390719  0.000100914
2970   0.0198088    0.737707    0.770302  2.73417e-05
2980   0.0187948    0.737436    0.770766  7.67461e-05
2990   0.0182738    0.737296    0.105754  -0.000245062
3000   0.0236961    0.738747    0.105104  -0.000369364
3010   0.0256611    0.739273   -0.179768  -2.28645e-05
3020   0.0241534    0.738869    0.390533  0.000175867
3030   0.0221438    0.738332    0.104919  -0.00017247
3040   0.0276028    0.739793   -0.560185  -0.000347089
3050   0.0290856    0.740189  0.00974467  0.000176368
3060   0.0240754    0.738849   -0.370116  0.000351555
3070   0.0220545    0.738308    0.105661  0.000127209
3080   0.0215312    0.738168    0.105383  0.000303387
3090   0.0159867    0.736684    0.295267  -0.000148447
3100   0.0245002    0.738962    0.105197  -0.000223378
3110   0.0204543     0.73788   -0.369837  -2.33212e-05
3120   0.0249666    0.739087   -0.179954  0.000128679
3130   0.0178807    0.737191    0.200371  0.000279943
3140   0.0193677    0.737589    0.200557  0.000230751
3150   0.0132657    0.735956     0.29536  0.000611073
3160  0.00714626    0.734318    0.105476  5.4327e-05
3170   0.0121791    0.735665    0.390255  -0.000224358
3180   0.0116334    0.735519    0.200093  5.46389e-05
3190   0.0110864    0.735373    0.105383  0.000233334
3200  0.00696673     0.73427     1.15044  0.000259317
3210  0.00590002    0.733985    0.390162  0.000464876
3220  -0.00233078    0.731782    0.295452  0.000337656
3230  -0.000853106    0.732178    0.295452  0.000211149
3240  -0.00655377    0.730652    0.580789  0.000365321
3250  -0.00815952    0.730223   -0.275127  -1.91782e-05
3260  -0.0061702    0.730755  -0.0849652  0.000316028
3270  -0.0144801    0.728531  0.00983763  0.000703233
3280  -0.0202349    0.726991    0.105383  7.75144e-06
3290  -0.0146351     0.72849   -0.465012  -0.00027609
3300  -0.0147131    0.728469    0.485151  0.000318879
3310  -0.0210127    0.726783   -0.370394  -9.60357e-05
3320  -0.0127924    0.728983   -0.655545  -0.000563217
3330  -0.00974835    0.729798  0.00974485  0.00011175
3340  -0.0150274    0.728385   -0.275035  5.92831e-05
3350   -0.010934     0.72948   -0.180232  -4.4337e-05
3360  -0.0141406    0.728622    0.105104  -0.000149616
3370  -0.00794168    0.730281    0.294803  -9.69489e-05
3380  -0.0122016    0.729141   -0.275406  8.55778e-05
3390  -0.00965324    0.729823   -0.465476  0.000138891
3400  -0.0149795    0.728398    0.105104  5.98176e-05
3410  -0.0108496    0.729503   0.0100234  -0.000360966
3420  -0.00776014     0.73033  0.00983734  -0.00015102
3430  -0.00782919    0.730311    0.104826  0.000112652
3440  -0.0100132    0.729727   -0.180325  0.000271668
3450  -0.0132626    0.728857   -0.750255  0.000113365
3460  -0.0122805     0.72912   -0.560371  0.000140595
3470  -0.0160745    0.728105   -0.655174  -7.21576e-05
3480  -0.0108373    0.729506    -0.65536  -0.000284788
3490  -0.0103787    0.729629   -0.750255  -0.000179319
3500  -0.00725095    0.730466   -0.179953  -1.93341e-05
3510  -0.00999203    0.729732   -0.845336  0.000113955
3520  -0.00953006    0.729856    -1.03578  -0.000260687
3530  -0.00477828    0.731128   -0.750441  -4.63862e-05
3540  -0.00860233    0.730104    -1.22557  -2.0303e-05
3550  -0.00437222    0.731236   -0.940511  -0.000342891
3560  -0.00174452    0.731939   -0.180232  0.000438024
3570  -0.0131327    0.728892   -0.750162  0.000276246
3580  -0.00726944    0.730461    -0.94051  3.49929e-05
3590  -0.0138326    0.728705   -0.655081  0.000467627
3600   -0.016622    0.727958    -1.32037  8.94313e-05
3610  -0.0156212    0.728226   -0.939953  -0.000208944
3620  -0.0124431    0.729077   -0.275035  -0.000100546
3630  -0.0136103    0.728764   -0.655081  8.9654e-05
3640  -0.0142362    0.728597    -1.03531  6.26687e-05
3650  -0.0148636    0.728429   -0.274756  0.000117597
3660  -0.0165881    0.727967    -1.03559  3.56946e-05
3670  -0.0155775    0.728238     -1.2252  0.000310392
3680   -0.022796    0.726306    -0.36993  0.000393186
3690  -0.0234412    0.726133    -1.03513  -0.000128055
3700  -0.0202349    0.726991    -1.32046   -0.000266
3710  -0.0181213    0.727557    -1.13067  -7.36388e-05
3720  -0.0187621    0.727386   -0.560371  0.000174809
3730  -0.0216174    0.726622   -0.180046  0.000230617
3740  -0.0233744    0.726151   -0.370116  0.000120437
3750  -0.0240262    0.725977    0.104733  0.000426597
3760  -0.0319064    0.723868    -0.94051  -7.35721e-05
3770  -0.0225547    0.726371    -0.56065  -0.000211862
3780  -0.0276691    0.725002   -0.560557  0.000400592
3790  -0.0305666    0.724227   -0.560556  1.05246e-05
3800  -0.0278796    0.724946  0.00946631  -0.000157067
3810  -0.0274252    0.725067  0.00965179  0.000375366
3820   -0.035387    0.722937   -0.465197  0.000122954
3830  -0.0298843    0.724409    0.104918  -0.000269664
3840  -0.0299937     0.72438  -0.0853362  -0.000101805
3850  -0.0278482    0.724954   -0.465383  -0.000214925
3860  -0.0256952     0.72553   -0.560557  -1.76524e-05
3870  -0.0274952    0.725049   -0.465754  9.53452e-05
3880  -0.0276021     0.72502    -1.41564  0.000464776
3890  -0.0367907    0.722561    -1.13049  0.000124402
3900  -0.0300901    0.724354   -0.560557  6.91617e-05
3910  -0.0381739    0.722191    -1.22548  0.000324837
3920  -0.0365869    0.722616   -0.275406  4.10626e-05
3930  -0.0389952    0.721971    -1.03578  -0.000102217
3940  -0.0345425    0.723163    -0.65536  -0.000331319
3950  -0.0323688    0.723745    -0.46529  9.80848e-05
3960  -0.0365042    0.722638    -1.32074  -0.000132176
3970  -0.0297253    0.724452    -1.32074  -1.65274e-05
3980  -0.0361737    0.722726    -1.13086  0.000213165
3990  -0.0339886    0.723311    -1.60608  0.000156833
4000  -0.0393104    0.721887    -1.22613  0.000185634
4010  -0.0377013    0.722318    -1.13104  -0.000335128
4020  -0.0326078    0.723681   -0.846265  -0.000364976
4030  -0.0304017    0.724271   -0.845801  1.17496e-05
4040  -0.0328428    0.723618      -1.511  1.14156e-05
4050  -0.0306301     0.72421    -1.13132  -0.000221696
4060  -0.0284089    0.724804    -1.32158  -0.000134726
4070  -0.0279355    0.724931   -0.275777  -0.000340351
4080  -0.0216018    0.726626    -0.84645  -0.000253014
4090  -0.0228753    0.726285    -1.22585  -0.00043083
4100  -0.0129852    0.728931   -0.561485  -0.000195836
4110  -0.0189585    0.727333   -0.370766  -0.0001094
4120  -0.0107972    0.729517   -0.845894  -0.000256232
4130  -0.0138339    0.728704   -0.466033  -8.05327e-05
4140  -0.00918659    0.729948   -0.940882  -0.000258003
4150  -0.00867383    0.730085   -0.941067  0.000126808
4160  -0.0117227    0.729269   -0.655916  -8.129e-05
4170  -0.00704803     0.73052   -0.751091  -5.11529e-05
4180  -0.0106997    0.729543    -1.03568  0.000246443
4190  -0.0119769    0.729201   -0.560835  0.000247557
4200  -0.0156508    0.728218   -0.465662  -2.13722e-05
4210  -0.0115494    0.729316    -1.70088  -0.000170844
4220  -0.0122339    0.729132    -1.03587  0.00018883
4230  -0.0153261    0.728305    -1.79615  -0.000442936
4240  -0.00337522    0.731503    -1.70116  -0.000593966
4250  -0.00344673    0.731484    -1.51118  0.000279052
4260  -0.00895627     0.73001    -1.32102  0.00043083
4270  -0.0120633    0.729178    -1.22594  -0.000325383
4280  -0.00244861    0.731751    -1.13132  -0.000325383
4290  -0.00555566     0.73092    -1.13123  -5.38258e-05
4300  -0.0013721    0.732039    -1.13123  3.80779e-05
4310  -0.00631721    0.730716   -0.940789  0.000190044
4320  -0.00517298    0.731022   -0.845893  0.000130082
4330  -0.00891885     0.73002    -1.32093  6.88387e-05
4340  -0.00654976    0.730654    -1.03596  -0.00039078
4350  -0.00110325    0.732111   -0.656102  0.000407519
4360  -0.0147001    0.728473   -0.845893  0.00037648
4370  -0.00863285    0.730096   -0.940975  -0.000360955
4380  -0.00748105    0.730404   -0.085986  -0.000115414
4390  -0.00632456    0.730714   -0.180789  -0.000177782
4400  -0.0039254    0.731356   -0.180789  0.000256043
4410  -0.0114454    0.729343   -0.846079  0.000629004
4420  -0.0165055    0.727989    -1.13132  0.000413522
4430  -0.0197159     0.72713    -1.41573  -0.000458115
4440  -0.00734317    0.730441   -0.941253  -0.000427099
4450  -0.0111739    0.729416    -1.22603  3.94367e-05
4460  -0.0081319     0.73023   -0.845986  -0.000430206
4470  -0.00256979    0.731719   -0.561207  -0.000117408
4480  -0.00578374    0.730859   -0.656102  3.87573e-05
4490  -0.00334493    0.731511   -0.751276  -0.000244338
4500  -0.000896986    0.732166   -0.751369  0.000323311
4510  -0.00981116    0.729781    -1.13151   0.0005133
4520   -0.011163    0.729419   -0.941253  -8.64688e-05
4530  -0.00808178    0.730244   -0.941346  7.24249e-05
4540  -0.0126115    0.729031    -1.03624  0.000231107
4550  -0.0127039    0.729007    -0.94116  -5.44941e-05
4560  -0.0115216    0.729323   -0.275963  -0.000150407
4570  -0.00969578    0.729812   -0.466125  -0.000246888
4580  -0.00658384    0.730644    -1.03624  -0.000247701
4590  -0.00474175    0.731137   -0.751647  7.24026e-05
4600  -0.00803189    0.730257   -0.466311  4.00269e-05
4610  -0.00554229    0.730923    -1.13142  -0.000281636
4620  -0.00239916    0.731764    -1.32167  -0.000379476
4630  0.00204723    0.732954   -0.561392  0.000136898
4640  -0.00513712    0.731032   -0.466589  0.000816966
4650  -0.0142921    0.728582    -1.22678  0.000689913
4660  -0.0189354    0.727339   -0.466404  9.72273e-06
4670  -0.0144865     0.72853   -0.371137  -0.00021752
4680   -0.014585    0.728503   -0.181439  -0.00015347
4690  -0.0114171    0.729351    -1.03689  -0.000153782
4700  -0.0115094    0.729326    -0.18181  0.000107585
4710  -0.0135688    0.728775   -0.561949  0.000140707
4720  -0.0143235    0.728573  0.00853806  -0.000418044
4730  -0.00520795    0.731013    0.388399  -0.000253905
4740  -0.00924539    0.729932     0.48348  0.000173316
4750  -0.00867428    0.730085    0.103526  0.00014133
4760   -0.012072    0.729176    0.198236  -0.000123823
4770  -0.00619782    0.730748    0.293039  -9.01552e-05
4780  -0.0102689    0.729658    0.293689  -0.000257847
4790  -0.00104088    0.732128    0.578561  -0.000624449
4800  0.00222008       0.733    0.388399  -0.000226463
4810  0.00348838     0.73334  0.00835258  -0.000327922
4820  0.00877852    0.734755    0.388213  -0.000127565
4830  0.00603968    0.734022    0.673457  0.00024083
4840  0.00396193    0.733466    0.673642  0.000140796
4850  0.00322376    0.733269     0.57884  -0.000162146
4860  0.00720485    0.734334    0.863526  -0.00039891
4870    0.011202    0.735404    0.388492  -0.000163449
4880   0.0104738    0.735209   -0.181809  0.000208777
4890  0.00702643    0.734286   -0.086543  -0.000164718
4900   0.0137682     0.73609     0.19833  -0.000198453
4910   0.0109955    0.735349  0.00816683  -0.000302507
4920   0.0198183    0.737709    0.197865  5.26784e-06
4930   0.0108901     0.73532    -0.18181  0.000346198
4940   0.0128944    0.735857   -0.181903  0.000417354
4950  0.00254306    0.733087   -0.371694  0.000280188
4960   0.0072906    0.734357    0.103341  4.14079e-05
4970   0.0017149    0.732865  -0.0867286  0.000455086
4980  -0.00181112    0.731922   -0.276706  0.000180266
4990  -0.00189042      0.7319    -0.65703  -9.45544e-05
