Time   Number   
ps   
0          13          13
10          12          14
20          13          13
30          13          13
40          13          13
50          13          13
60          12          12
70          11          13
80          12          12
90          13          13
100          13          13
110          12          12
120          10          12
130           9           9
140          12          12
150          11          13
160          12          14
170          12          12
180          12          12
190          11          11
200          12          12
210          12          12
220          12          12
230          11          11
240          11          11
250          10          12
260          11          13
270          12          12
280          10          12
290          12          12
300          11          13
310          11          11
320          12          12
330          11          11
340          12          14
350          11          11
360          10          14
370          11          13
380          12          12
390          12          12
400          11          11
410          12          12
420          12          12
430          11          11
440          12          12
450          12          12
460          12          12
470          11          13
480          10          12
490          11          11
500          12          12
510          11          11
520          11          13
530          12          12
540          11          13
550          11          13
560          12          12
570          12          12
580          10          12
590          12          12
600          12          12
610          12          12
620          12          12
630          11          13
640          11          11
650          12          12
660          11          11
670          12          12
680          11          11
690          12          12
700          13          13
710          11          11
720          11          11
730          12          12
740          12          12
750          10          14
760          13          13
770          11          11
780          12          12
790          11          13
800          11          11
810          12          12
820          12          12
830          12          14
840          11          13
850          12          12
860          10          12
870          10          10
880          11          11
890          12          12
900          11          11
910          12          12
920          11          11
930          12          12
940          12          12
950          12          12
960          13          13
970          13          13
980          12          12
990          11          11
1000          14          14
1010          12          12
1020          12          14
1030          11          11
1040          12          14
1050          12          14
1060          12          12
1070          10          14
1080          12          12
1090          11          13
1100          11          11
1110          11          11
1120          12          12
1130          11          13
1140          11          11
1150          11          11
1160          11          11
1170           9          11
1180           9          11
1190          10          12
1200          10          10
1210           9           9
1220          12          12
1230          11          15
1240          12          12
1250          10          12
1260          11          11
1270          11          13
1280           9           9
1290          10          10
1300          12          12
1310          12          12
1320          12          12
1330           9          13
1340          10          10
1350           9          11
1360          11          13
1370          12          12
1380          12          12
1390          12          12
1400          10          12
1410          12          14
1420          12          14
1430          11          11
1440          10          10
1450          10          12
1460          11          11
1470           9          11
1480          12          12
1490          12          12
1500          10          10
1510          11          13
1520          11          11
1530          13          13
1540          10          10
1550          11          11
1560          10          10
1570          11          11
1580          11          11
1590          12          12
1600          10          10
1610          10          10
1620          13          13
1630          11          11
1640          11          11
1650           9           9
1660          10          10
1670          10          12
1680           9          11
1690          11          11
1700          11          11
1710          10          14
1720          10          10
1730           9          11
1740          11          13
1750          10          10
1760          10          10
1770          10          12
1780          10          10
1790          12          14
1800          11          13
1810          12          12
1820          10          12
1830          11          13
1840          10          10
1850           9           9
1860          11          11
1870           9           9
1880          10          10
1890          12          14
1900          12          12
1910          12          14
1920          13          13
1930          12          12
1940          12          12
1950          11          13
1960           9           9
1970          10          10
1980          11          11
1990          13          13
2000          11          11
2010          12          12
2020          11          11
2030          11          11
2040          12          12
2050          10          10
2060          11          13
2070          10          10
2080          11          11
2090          12          12
2100          10          12
2110          11          13
2120          13          13
2130          11          11
2140          13          13
2150          12          12
2160          12          14
2170          12          12
2180          12          12
2190          12          14
2200          13          13
2210          12          14
2220          11          11
2230          11          11
2240          12          14
2250          13          13
2260          12          12
2270          12          14
2280          12          12
2290          13          13
2300          10          14
2310          10          10
2320          12          12
2330          12          12
2340          13          13
2350          12          12
2360          12          12
2370          13          13
2380          11          15
2390          13          13
2400          11          11
2410          10          12
2420          10          12
2430          13          13
2440          10          10
2450          11          11
2460          12          12
2470          12          12
2480          12          12
2490          13          13
2500          12          14
2510          12          12
2520          12          12
2530          11          11
2540          12          12
2550          12          12
2560          11          13
2570          12          12
2580          11          13
2590          11          11
2600          12          14
2610          12          12
2620          10          10
2630          10          10
2640           9           9
2650           9           9
2660          10          12
2670          11          11
2680          11          11
2690          11          11
2700          12          12
2710          12          12
2720          10          10
2730           9           9
2740          11          11
2750          11          11
2760          11          11
2770          11          11
2780          12          12
2790          11          11
2800          12          12
2810          12          12
2820          10          12
2830           8          10
2840          12          12
2850          11          13
2860          12          12
2870          11          11
2880          11          11
2890           9          11
2900          12          12
2910          11          13
2920           9           9
2930          11          11
2940          10          10
2950           9           9
2960          11          11
2970          11          11
2980          12          12
2990          10          12
3000          10          10
3010          10          10
3020          11          11
3030          10          10
3040           9          11
3050          10          10
3060          11          11
3070          10          10
3080          11          11
3090          10          10
3100          12          12
3110          10          10
3120           9           9
3130          12          12
3140          11          11
3150          11          11
3160          10          12
3170           9           9
3180          10          10
3190          11          11
3200          10          10
3210           9          11
3220          11          11
3230          11          11
3240          11          11
3250          11          11
3260          10          10
3270           9          11
3280          11          11
3290          10          12
3300          10          10
3310          10          10
3320          11          11
3330          10          10
3340          11          11
3350           8           8
3360          11          11
3370          10          10
3380          10          10
3390          11          11
3400          10          10
3410           9          11
3420          10          10
3430          10          10
3440          10          10
3450          10          10
3460          10          10
3470           8           8
3480           9          11
3490           9          13
3500          11          11
3510          10          12
3520          11          13
3530          11          11
3540          11          13
3550           9          15
3560          10          12
3570          10          10
3580          10          10
3590          10          10
3600          10          12
3610          10          12
3620           8           8
3630          10          10
3640          10          10
3650          10          10
3660          10          10
3670          11          15
3680          11          11
3690          10          12
3700          10          10
3710          10          10
3720          10          10
3730          12          12
3740           9          11
3750          10          10
3760           9          11
3770          11          11
3780           9          11
3790          10          10
3800          10          10
3810          10          10
3820          10          10
3830          10          10
3840          10          14
3850          10          10
3860          10          10
3870          10          10
3880           9          11
3890          10          12
3900          11          13
3910          10          14
3920          10          14
3930          11          11
3940          10          10
3950          11          13
3960           9           9
3970          11          11
3980           9          11
3990          11          13
4000          11          11
4010          10          10
4020          10          12
4030           9          11
4040          13          13
4050          11          13
4060           9          11
4070           8          12
4080          11          13
4090          11          15
4100          10          12
4110          11          11
4120          10          12
4130          10          12
4140          10          12
4150          11          13
4160          12          12
4170          10          12
4180           9           9
4190          11          11
4200          11          13
4210          10          12
4220           8           8
4230          10          12
4240           8           8
4250          11          13
4260          10          14
4270          10          12
4280          10          10
4290          11          11
4300          10          10
4310           9          11
4320           9          13
4330          11          13
4340           9          13
4350          11          11
4360          11          11
4370           9          13
4380          13          13
4390          10          12
4400          10          12
4410          11          11
4420          12          12
4430          12          12
4440          10          10
4450           9           9
4460           9          11
4470          10          12
4480           8          12
4490          11          13
4500          11          11
4510          10          12
4520          11          15
4530          13          15
4540           9          13
4550          10          12
4560          10          10
4570          10          10
4580          10          12
4590          12          12
4600          11          11
4610           9          11
4620          11          13
4630           8          12
4640          11          11
4650           8          14
4660           9          17
4670          10          12
4680           8          10
4690           8          12
4700           6           6
4710           8          12
4720           7           9
4730           9           9
4740           9           9
4750           8          10
4760           8          10
4770           9           9
4780           8           8
4790           5           7
4800           7           7
4810           8           8
4820           8           8
4830           9           9
4840          10          12
4850           9          11
4860           8          10
4870           9           9
4880          10          10
4890           9           9
4900          11          11
4910          10          10
4920           9           9
4930          10          12
4940          11          11
4950          10          12
4960          11          11
4970           9          11
4980          10          10
4990           9           9
5000           8          10
5010           9           9
5020           9           9
5030           9           9
5040           9           9
5050          11          11
5060          11          13
5070          10          10
5080          10          12
5090           8          12
5100           7           7
5110          10          12
5120          10          10
5130          11          11
5140          10          12
5150           9          11
5160           9           9
5170          10          10
5180          10          12
5190           9           9
5200          11          11
5210           8           8
5220          10          10
5230           9          11
5240          11          11
5250           9           9
5260           9          11
5270           9          11
5280          10          10
5290           8          10
5300           9          11
5310           9           9
5320          10          10
5330          10          10
5340          10          10
5350           9           9
5360          11          11
5370          10          10
5380          10          10
5390           9           9
5400           9           9
5410          10          10
5420          10          12
5430           9           9
5440           9           9
5450           9          13
5460           9           9
5470           9          11
5480           8          12
5490           9           9
5500           9           9
5510           9           9
5520          10          10
5530          10          10
5540          10          12
5550          10          10
5560          10          10
5570          11          11
5580          10          12
5590          10          10
5600           9           9
5610          10          10
5620          10          10
5630          10          10
5640          10          10
5650           9           9
5660          10          10
5670          10          10
5680           9           9
5690          10          10
5700           9           9
5710          10          10
5720          10          10
5730           9          11
5740          10          10
5750           9           9
5760           9           9
5770           9           9
5780           7          13
5790           8           8
5800           8          12
5810           9           9
5820           8           8
5830           8          10
5840           9           9
5850           9           9
5860          10          10
5870           9           9
5880           7           7
5890           9           9
5900           9           9
5910           9          11
5920           8          10
5930           8          10
5940           9           9
5950           9           9
5960           8          10
5970           9           9
5980           9           9
5990           9           9
6000           9           9
6010           8           8
6020           8          10
6030           8          10
6040           9          11
6050          10          10
6060          11          11
6070          11          11
6080           9          13
6090           9          13
6100          10          12
6110           9           9
6120           9          11
6130          10          10
6140          10          12
6150          10          12
6160          11          11
6170           9           9
6180          10          10
6190          11          11
6200          11          11
6210           9          11
6220          11          11
6230          11          11
6240          11          11
6250          10          10
6260          10          12
6270          11          11
6280          10          10
6290          10          10
6300           9          11
6310          10          12
6320          11          11
6330          12          12
6340          11          11
6350          10          10
6360          10          10
6370          11          11
6380          10          10
6390          11          11
6400          11          11
6410          11          11
6420           9          11
6430          10          10
6440          11          11
6450          10          10
6460          10          10
6470           9          11
6480           9          11
6490          10          12
6500          10          10
6510           9          11
6520           8           8
6530           9           9
6540           9           9
6550          10          12
6560          10          10
6570           9          11
6580          10          10
6590           8           8
6600          10          12
6610           9           9
6620          11          11
6630          11          11
6640          11          11
6650          10          12
6660          11          11
6670          11          11
6680          11          11
6690          11          11
6700          11          11
6710          11          11
6720          11          11
6730          10          10
6740          11          11
6750          11          11
6760          11          11
6770          10          12
6780          11          11
6790          11          11
6800          10          10
6810          10          12
6820          11          11
6830          11          11
6840          10          12
6850          11          11
6860          11          11
6870          11          11
6880          12          12
6890          10          10
6900          10          10
6910          10          12
6920           9          13
6930          10          12
6940          11          11
6950          10          10
6960          10          12
6970          10          10
6980           9          11
6990          10          10
7000          10          12
7010          10          12
7020          10          12
7030           8          10
7040          11          13
7050           9          11
7060          10          10
7070          11          13
7080          10          10
7090          11          11
7100          11          13
7110          12          12
7120          11          11
7130          11          11
7140          11          11
7150          11          11
7160          11          13
7170          11          11
7180          11          11
7190          11          11
7200          10          14
7210          11          11
7220          10          10
7230          11          11
7240          12          12
7250          10          12
7260          11          11
7270           9          13
7280          10          10
7290           9          11
7300          11          11
7310          12          12
7320           9           9
7330          12          12
7340          12          12
7350          12          12
7360          12          12
7370          10          10
7380          11          11
7390          11          11
7400          11          13
7410          11          11
7420          10          10
7430          12          12
7440           9          13
7450          10          10
7460          11          11
7470          12          12
7480          12          16
7490          13          13
7500          12          14
7510          12          12
7520          12          12
7530          13          13
7540          11          15
7550          12          12
7560          12          12
7570          11          11
7580          13          15
7590          11          13
7600          11          17
7610          13          13
7620          12          12
7630          13          15
7640          13          15
7650          11          11
7660           9           9
7670          11          11
7680          12          12
7690          11          11
7700          11          11
7710          10          10
7720          12          12
7730          11          13
7740          11          11
7750          11          13
7760          12          12
7770          10          12
7780          12          12
7790          11          11
7800           9          11
7810          11          11
7820          10          12
7830          11          11
7840          11          11
7850          11          13
7860          12          12
7870          12          14
7880          10          12
7890          10          10
7900          10          12
7910          11          11
7920           9           9
7930          11          11
7940          10          10
7950          11          11
7960          11          11
7970           9           9
7980          10          10
7990          11          11
8000           9           9
8010          11          13
8020          12          12
8030          10          10
8040          12          12
8050          12          12
8060          12          12
8070          12          12
8080          13          13
8090          12          12
8100          12          12
8110          13          13
8120          12          14
8130          11          13
8140          13          13
8150          13          13
8160          11          11
8170          12          14
8180          11          11
8190          11          11
8200           9          11
8210          12          12
8220          10          10
8230          13          13
8240          11          11
8250          12          14
8260          13          13
8270          10          12
8280          12          12
8290          11          13
8300          12          12
8310          13          13
8320          11          13
8330          12          12
8340          13          13
8350          13          13
8360          11          13
8370          13          13
8380          12          12
8390          13          13
8400          12          14
8410          11          15
8420          11          13
8430          12          12
8440          10          12
8450          13          13
8460          13          13
8470          11          13
8480          13          13
8490          12          12
8500          11          13
8510          13          13
8520          12          14
8530          11          11
8540          12          14
8550          13          19
8560          11          13
8570          12          12
8580          11          13
8590          12          14
8600          11          13
8610          11          11
8620          10          10
8630          11          11
8640          14          14
8650          12          12
8660          11          13
8670          12          14
8680          13          13
8690          14          14
8700          13          15
8710          12          14
8720          14          14
8730          13          13
8740          12          12
8750          12          12
8760          11          13
8770          12          12
8780          14          14
8790          11          11
8800          12          14
8810          11          11
8820          11          11
8830           9          13
8840          12          12
8850          12          12
8860          11          11
8870          10          12
8880          11          11
8890          12          12
8900          12          12
8910          12          12
8920          10          12
8930          11          11
8940          11          11
8950          12          12
8960          10          10
8970          11          11
8980          10          10
8990          11          11
9000          12          12
9010          12          12
9020          11          15
9030          13          13
9040          13          13
9050          13          13
9060          13          13
9070          13          13
9080          13          13
9090          14          14
9100          13          13
9110          11          11
9120          11          13
9130          11          11
9140          10          10
9150          12          12
9160          11          11
9170          12          14
9180          13          15
9190          11          13
9200          11          11
9210          11          11
9220          12          12
9230          13          13
9240          11          13
9250          11          11
9260          11          11
9270          11          11
9280          12          12
9290          13          13
9300          13          13
9310          11          15
9320          11          11
9330          13          13
9340          12          16
9350          13          15
9360          13          13
9370          11          13
9380          13          15
9390          10          10
9400          10          10
9410          11          11
9420          10          10
9430          13          13
9440          11          11
9450          12          12
9460          12          12
9470          12          12
9480          13          13
9490          12          12
9500          10          10
9510          10          12
9520          10          12
9530          13          13
9540          12          12
9550          13          13
9560          13          13
9570          12          12
9580          12          12
9590          11          11
9600          12          14
9610          13          13
9620          11          13
9630          11          13
9640          11          11
9650          11          11
9660          12          12
9670          13          13
9680          14          14
9690          14          14
9700          13          13
9710          13          13
9720          12          14
9730          13          15
9740          13          13
9750          13          13
9760          13          13
9770          12          12
9780          13          13
9790          13          13
9800          12          14
9810          11          11
9820          12          14
9830          12          14
9840          12          12
9850          13          13
9860          11          15
9870          12          12
9880          13          15
9890          13          13
9900          13          13
9910          13          13
9920          11          11
9930          12          12
9940          14          14
9950          14          14
9960          12          12
9970          14          14
9980          13          13
9990          14          14
10000          13          13
