Time   C(t)   
ps   
0           1           1  3.64374e-09   0.0550182
10    0.453124    0.783597     1.87891   0.0283306
20    0.433387    0.775787  -0.0496844  0.00164303
30    0.420264    0.770594   -0.131663  0.00154228
40    0.402542    0.763581    -1.01381  0.00148052
50    0.390653    0.758877    -1.41591  0.00142404
60    0.374061    0.752311   -0.734323  0.00131701
70    0.364313    0.748453   -0.173123  0.000826125
80    0.357539    0.745773    0.829835  0.000433417
90    0.355645    0.745023    -1.57939  0.000714488
100    0.343249    0.740118   -0.174455  0.000830486
110    0.339035    0.738451    -1.21809  0.000491913
120    0.333411    0.736225   -0.818926  0.000623246
130     0.32657    0.733518    0.144726  0.000770009
140     0.31801    0.730131    -2.02193  0.000927234
150    0.308026     0.72618     -1.4998  0.000375772
160    0.310495    0.727157    0.984861  0.000487943
170    0.298267    0.722318   -0.978653  0.000513422
180    0.300226    0.723094    -1.58335  0.000262937
190    0.293008    0.720237    0.943989  0.00048521
200    0.290522    0.719254   -0.139967  0.000319616
210    0.286616    0.717708      1.4624  0.000684565
220    0.276831    0.713836     1.98586  0.000558972
230    0.275436    0.713284    0.900885  0.000494653
240    0.266938    0.709921     2.58664  0.000343084
250    0.268574    0.710569      2.1847  0.000278172
260    0.261374     0.70772    0.139869  0.000420688
270    0.260161     0.70724     2.18325  0.00010623
280     0.25925    0.706879     2.10248  0.000539707
290    0.249367    0.702968     4.27095  0.000494436
300    0.249361    0.702966     2.42413  0.000123169
310    0.246903    0.701993    0.378403  -0.000101689
320    0.251395    0.703771    0.777095  -6.06731e-05
330    0.248117    0.702474     2.94356  0.000548519
340    0.240425     0.69943    0.938193  0.00071869
350    0.233743    0.696786     2.46442  0.000129803
360    0.237828    0.698402     1.61931  -9.03539e-05
370     0.23555    0.697501     3.06308  0.000624216
380    0.225344    0.693462     3.26493  0.000424266
390    0.227065    0.694143     2.26127  9.0678e-05
400    0.223531    0.692745     4.62696  0.000426058
410    0.218543    0.690771     3.94487  0.000643843
420    0.210654    0.687649     5.10991  0.000443358
430    0.209676    0.687262      3.3042  0.000201306
440    0.206628    0.686056     3.46471  0.000279324
450     0.20409    0.685052     3.46459  7.76716e-05
460    0.205074    0.685441     3.22332  0.000187088
470    0.200348    0.683571     3.58392  0.000415883
480    0.196756     0.68215     3.30408  0.000156593
490    0.197216    0.682332     3.38293  -7.20605e-05
500    0.198198     0.68272     3.66206  0.000126015
510    0.194696    0.681335     3.98324  0.000329664
520    0.191604    0.680111     5.30855  -1.45808e-05
530    0.194988     0.68145     5.46702  0.000132191
540    0.188961    0.679065     3.78315  0.000221031
550    0.190567    0.679701     3.98277  8.03225e-05
560    0.187354    0.678429     2.61901  0.000164238
570    0.187282    0.678401      1.6157  -0.000181996
580    0.190994     0.67987     3.65994  -0.000150658
590    0.190295    0.679593     4.18117  8.04499e-05
600    0.189385    0.679233     3.09827  7.53738e-05
610    0.188788    0.678997     2.85747  0.000249673
620    0.184392    0.677257     1.89456  5.98371e-05
630    0.187591    0.678523       3.738  -1.89342e-05
640     0.18477    0.677407     2.21464  0.000261241
650    0.182366    0.676456     4.90218  0.000198249
660    0.180805    0.675838     3.29856  -6.12147e-05
670    0.183591     0.67694     1.93312  7.92295e-06
680    0.180647    0.675775     1.89335  0.000294688
690    0.177697    0.674608     3.65939  0.00018885
700     0.17687    0.674281     2.69711  -0.000108941
710    0.179876     0.67547     3.21728  -0.000258259
720    0.182035    0.676325     1.77296  -5.06863e-05
730    0.180889    0.675871     1.97388  2.38664e-05
740    0.181558    0.676136     1.05149  -2.73436e-06
750    0.180944    0.675893     2.93608  0.000243558
760    0.176687    0.674208   0.0482158  0.000184964
770    0.177245    0.674429  0.00824505  -2.3739e-05
780    0.177161    0.674396    -0.35451  0.000169562
790    0.173854    0.673087     4.21879  0.000196682
800    0.173228    0.672839      1.6922  6.80685e-05
810    0.172492    0.672548   0.0875994  -8.81471e-05
820    0.174991    0.673537     2.41266  5.74797e-05
830    0.171343    0.672093     2.01177  0.000295035
840     0.16909    0.671202    0.848773  0.000268735
850    0.165968    0.669967     1.05015  -0.000147691
860    0.172044    0.672371    0.246269  0.000210291
870    0.161762    0.668302      2.3739  0.000464867
880    0.162746    0.668692     2.49232  -0.000234286
890    0.166448    0.670157     2.61126  1.55449e-05
900    0.162435    0.668569     3.73546  4.22522e-06
910    0.166363    0.670123     1.92987  8.10005e-05
920    0.160815    0.667928     1.12884  0.00022799
930    0.161803    0.668319    0.447104  4.31545e-05
940    0.159952    0.667586    0.807352  4.76763e-06
950    0.161708    0.668281    0.806216  -2.24136e-05
960    0.160401    0.667764     2.00985  0.000202113
970    0.157666    0.666681     2.41081  0.000169539
980     0.15701    0.666422     2.04998  0.000120608
990    0.155254    0.665727     1.64886  0.000192352
1000    0.153163      0.6649    0.726588  0.000545054
1010    0.144353    0.661413     1.00862  0.000165577
1020    0.149851    0.663589     1.97015  -0.000528425
1030    0.154921    0.665595     3.09099  -0.000231334
1040    0.154478     0.66542     1.84726  8.30337e-05
1050     0.15326    0.664938     2.44918  0.000221528
1060    0.150047    0.663667     2.00871  0.000111111
1070    0.151038    0.664059    0.604169  -4.93005e-05
1080    0.151033    0.664057     2.76954  0.000222711
1090    0.146584    0.662296     3.69361  6.1705e-05
1100    0.149799    0.663569      2.6892  3.43733e-05
1110    0.145897    0.662024     2.16782  0.000223569
1120    0.145328    0.661799      2.2081  -6.02737e-05
1130    0.147102    0.662501      4.1329  -0.000172009
1140    0.148768    0.663161     3.77151  -4.93534e-05
1150    0.148089    0.662892     3.73248  -6.64189e-05
1160    0.150097    0.663686     3.24974  -8.32669e-05
1170    0.149754    0.663551     3.73197  5.67339e-05
1180    0.148962    0.663237     4.65381  -0.0001285
1190    0.152324    0.664568     3.80933  0.000158212
1200    0.145798    0.661985     5.77594  0.000169275
1210    0.148939    0.663228     3.60936  -2.14115e-05
1220    0.146226    0.662155     4.49299  -5.0053e-05
1230     0.14994    0.663624     4.81248  0.00027226
1240    0.140781        0.66     4.21425  0.000192969
1250    0.146081    0.662097     4.13133  -0.000473973
1260     0.15026    0.663751     5.29366  -0.000276688
1270    0.151614    0.664287     4.77059  0.000244673
1280    0.145367    0.661815     4.81307  0.000443637
1290    0.142742    0.660776     4.05084  -6.14263e-05
1300    0.146595    0.662301     3.72841  -0.000186455
1310    0.146471    0.662251     4.32993  9.79833e-05
1320    0.144635    0.661525     3.76822  0.000149482
1330    0.143481    0.661068     2.64524  -9.01729e-05
1340    0.146439    0.662239     1.28015  -0.000256082
1350    0.148603    0.663095      2.6028  0.000190084
1360    0.142637    0.660735     2.80485  0.000121233
1370    0.146178    0.662136     2.64343  -0.000233887
1380    0.147315    0.662586     3.96698  0.000294237
1390    0.140293    0.659807     1.92137  4.70035e-05
1400    0.146375    0.662214     2.28123  -8.46304e-05
1410    0.141986    0.660477     3.64549  0.000381766
1420     0.13874    0.659192     2.48324  8.2431e-05
1430    0.140337    0.659824     2.80379  -0.000269774
1440    0.144135    0.661327     3.48482  5.38871e-05
1450     0.13926    0.659398     2.12146  0.000175203
1460    0.140631    0.659941      3.8852  -2.70978e-05
1470    0.139802    0.659612     4.12659  -4.47057e-05
1480    0.141525    0.660294     4.04606  8.32818e-05
1490    0.138136    0.658953     3.24578  -6.82347e-05
1500     0.14289    0.660834     4.92813  -0.000207814
1510    0.142292    0.660598     4.40623  -2.76931e-05
1520    0.143444    0.661054     5.40872  6.00182e-05
1530    0.141092    0.660123     5.73001  0.000381691
1540     0.13581    0.658033      5.9718  9.54002e-05
1550    0.139184    0.659368     5.97051  -0.000238059
1560    0.140571    0.659917     5.16752  -0.000174156
1570    0.142667    0.660746     4.36426  0.000336796
1580    0.133835    0.657251     3.44434  0.000525261
1590    0.132162    0.656589     4.04618  -0.000274293
1600    0.139321    0.659422      3.9635  -0.000392415
1610     0.14001    0.659695     4.68446  0.000332654
1620    0.132668     0.65679     3.52354  0.000403946
1630    0.131931    0.656498     3.12164  0.00020401
1640    0.128588    0.655175     2.72126  -0.000139414
1650    0.134719    0.657601     5.44599  -0.000133222
1660    0.131252    0.656229     5.44748  -6.28792e-05
1670    0.135977    0.658099      2.3174  0.000252753
1680    0.126197    0.654229     3.56324  0.000169147
1690    0.132594     0.65676     4.28291  -0.000115734
1700    0.128512    0.655145     1.83739  0.00034304
1710    0.125733    0.654045      5.3258  0.000254305
1720    0.123426    0.653132     3.68123  -2.03349e-05
1730     0.12614    0.654206     3.84135  0.000249553
1740    0.118435    0.651157     3.64169  5.15901e-05
1750    0.125108    0.653798     3.39861  -0.000163672
1760    0.121708    0.652453      4.8032  0.000141997
1770    0.122268    0.652674     2.67675  -1.99735e-05
1780    0.122108    0.652611     2.71546  7.63908e-05
1790     0.12074     0.65207     3.39771  0.000209313
1800    0.117921    0.650954     3.03672  0.000433296
1810    0.112074    0.648641     3.67978  0.000186116
1820    0.114199    0.649481     4.04097  8.41029e-05
1830    0.110392    0.647975     4.64245  0.00030832
1840    0.108033    0.647041     4.64108  4.19497e-05
1850    0.109553    0.647643     5.76454  1.80077e-05
1860    0.107672    0.646899     4.68156  0.000279611
1870    0.103961     0.64543     3.47899  -0.000219615
1880    0.112065    0.648637     4.15865  -0.000298748
1890    0.109936    0.647794     4.75998  0.000158114
1900    0.108903    0.647385     3.63738  6.67959e-05
1910      0.1086    0.647266     5.12073  0.000116029
1920    0.106582    0.646467     4.51945  0.00028794
1930    0.102841    0.644987     4.27962  9.20411e-05
1940    0.104741    0.645739     1.99179  0.000141809
1950    0.100005    0.643865     4.35933  0.000129449
1960    0.102152    0.644714     4.91998  6.89104e-06
1970   0.0998674     0.64381     6.08278  0.000167099
1980   0.0988102    0.643392     5.48318  -0.000388461
1990    0.107637    0.646885     3.75639  -0.000215609
2000    0.103122    0.645098     5.36091  0.000303334
2010     0.10157    0.644484     3.31518  -5.83679e-06
2020    0.103239    0.645144     4.19756  -0.000508662
2030    0.111743     0.64851      3.5933  -3.6934e-05
2040    0.103978    0.645437     5.11882  0.000590702
2050   0.0999292    0.643835     2.59304  0.00053631
2060   0.0932515    0.641192     3.91792  -8.03374e-05
2070    0.101536     0.64447     3.75577  -0.000242089
2080   0.0980933    0.643108     5.48063  0.000438538
2090   0.0927652       0.641     6.40463  0.000132575
2100   0.0954418    0.642059     6.48331  4.56024e-05
2110   0.0918531    0.640639     5.92227  0.00012069
2120    0.093028    0.641104     6.64422  -0.000111389
2130   0.0940809     0.64152     5.11944  7.09232e-05
2140   0.0916096    0.640542     4.99843  -8.67315e-05
2150   0.0958155    0.642207     6.48096  -0.000168605
2160   0.0949817    0.641877     6.84286  0.000329973
2170   0.0892161    0.639595     4.87821  -5.5559e-05
2180   0.0960928    0.642317     5.99881  -4.21833e-05
2190   0.0900597    0.639929     6.36046  0.000261445
2200   0.0908639    0.640247     5.79903  7.83116e-05
2210   0.0884935    0.639309     7.72512  2.10576e-05
2220   0.0904428    0.640081     5.27686  -0.000163341
2230   0.0917603    0.640602     7.68284  0.000110433
2240   0.0882341    0.639207     7.04193  0.000206209
2250   0.0876361     0.63897     7.40253  0.000123794
2260   0.0857583    0.638227     7.28281  -0.000100092
2270    0.089638    0.639762      7.5226  9.23872e-05
2280   0.0839105    0.637496     8.28518  0.000175474
2290   0.0861285    0.638374     7.40175  -0.000305638
2300   0.0900233    0.639915     6.59864  -0.000190491
2310   0.0899383    0.639881     9.12512  0.000607858
2320   0.0778661    0.635104     8.44518  0.000750593
2330   0.0749265    0.633941     9.00744  9.40971e-05
2340   0.0759842    0.634359     8.72533  -0.000144708
2350   0.0778206    0.635086      5.3956  -0.000145017
2360   0.0788845    0.635507     8.72377  0.000101026
2370   0.0758001    0.634287     8.32276  0.000133472
2380   0.0762151    0.634451     7.52009  1.69609e-05
2390   0.0754609    0.634152     6.43759  -0.000139353
2400   0.0790022    0.635554      8.4022  0.000180098
2410   0.0718589    0.632727     6.92018  0.000192947
2420   0.0751432    0.634027     8.04203  -0.000315821
2430   0.0781754    0.635226     8.80359  0.000108821
2440   0.0729668    0.633165     7.92192  0.000213477
2450   0.0739058    0.633537     9.96706  -2.17631e-06
2460   0.0730103    0.633183     7.56069  0.000254019
2470   0.0688254    0.631527     10.9308  0.000175511
2480   0.0695001    0.631794     8.80347  -0.000140008
2490   0.0716256    0.632635     9.36514  -3.47123e-05
2500   0.0701943    0.632068     8.64289  0.000235838
2510   0.0669089    0.630768      10.247  3.79056e-05
2520   0.0694362    0.631768     8.44146  -0.000200146
2530   0.0709118    0.632352     8.92378  -0.000107918
2540   0.0715946    0.632622     9.48361  0.000237276
2550   0.0661663    0.630474      8.8429  9.77877e-05
2560   0.0696388    0.631848      10.767  0.000305074
2570   0.0600648     0.62806     8.44252  0.000378437
2580   0.0620701    0.628853     8.04105  -0.000274278
2590   0.0655503    0.630231     7.71905  0.000153083
2600   0.0590084    0.627642     7.84025  0.00019968
2610   0.0615567     0.62865     7.67908  -0.000235047
2620   0.0637094    0.629502     7.96017  -5.43918e-05
2630   0.0626446    0.629081     7.23724  0.00012008
2640   0.0613078    0.628552     8.43997  0.000187727
2650     0.05889    0.627595     8.47948  -2.08694e-05
2660   0.0617252    0.628717     8.15865  0.000262989
2670   0.0536303    0.625514     7.71909  0.000222432
2680   0.0572765    0.626957     8.80097  -0.000358411
2690   0.0607985     0.62835      9.2408  0.000142268
2700   0.0544312    0.625831     7.59702  0.000413549
2710   0.0525275    0.625077     10.0039  -0.000258025
2720   0.0595917    0.627873     8.47818  -0.000571271
2730   0.0639529    0.629598     7.47405  0.000360866
2740   0.0523743    0.625017     8.55946  0.000429048
2750    0.055372    0.626203     7.23548  -0.000163484
2760    0.055644    0.626311     7.71646  -0.000116202
2770    0.057696    0.627123     5.82885  -0.000150673
2780   0.0586575    0.627503     7.63397  4.10385e-05
2790   0.0568752    0.626798     8.23597  0.000164711
2800   0.0553632    0.626199     8.31618  -0.000144587
2810    0.059767    0.627942     8.31548  -8.94578e-05
2820   0.0571524    0.626907      8.8373  -0.000103978
2830   0.0618466    0.628765     8.99632  7.59617e-05
2840   0.0556332    0.626306     8.31607  4.08052e-05
2850   0.0610305    0.628442     8.99753  -2.75875e-05
2860   0.0561849    0.626525     8.67714  7.5713e-05
2870   0.0595162    0.627843     9.63903  -0.000125074
2880   0.0586864    0.627514     8.87758  6.2247e-05
2890   0.0582713     0.62735     7.55297  -2.11708e-05
2900   0.0591098    0.627682     9.67978  -0.000370198
2910   0.0656752     0.63028     9.27655  -0.000224074
2920   0.0635913    0.629455     7.39223  -8.52931e-05
2930   0.0673811    0.630955     8.43371  4.10762e-05
2940   0.0627698     0.62913     7.87333  0.000398622
2950   0.0594086      0.6278     7.43243  6.94169e-05
2960   0.0613814    0.628581     7.83262  -1.4483e-05
2970   0.0596983    0.627915     7.91334  -5.70653e-05
2980   0.0625227    0.629033     7.63123  7.71968e-05
2990   0.0581544    0.627304     5.94779  0.000373866
3000   0.0550454    0.626074     7.87333  -0.000170119
3010   0.0615567     0.62865     7.22988  -0.000162851
3020   0.0583024    0.627363     7.83211  0.000219404
3030   0.0571687    0.626914     8.55378  -4.28988e-05
3040   0.0591604    0.627702     6.78773  -0.00039173
3050   0.0650033    0.630014     6.62581  0.000120856
3060   0.0567433    0.626746      7.9106  0.000512978
3070   0.0547437    0.625954     9.27498  0.000457698
3080   0.0475893    0.623123      8.6751  -6.42125e-05
3090    0.056028    0.626463     8.47098  5.15223e-05
3100   0.0465589    0.622716      6.8692  0.000172476
3110   0.0525784    0.625098     7.02728  -0.000192766
3120   0.0504142    0.624241     7.02767  0.000346376
3130   0.0456509    0.622356     6.94769  0.000101915
3140   0.0483759    0.623435     8.75128  5.21926e-05
3150   0.0446071    0.621943     8.02938  0.000399141
3160   0.0403931    0.620276     8.47152  0.000161149
3170   0.0413841    0.620668     8.95302  -3.39214e-05
3180   0.0410715    0.620544     9.03249  9.6718e-05
3190   0.0394497    0.619902     10.7573  0.000424446
3200   0.0325826    0.617185     10.2766  -2.6631e-05
3210   0.0399823    0.620113     9.99403  -0.000310368
3220     0.03879    0.619641      9.8749  0.000287564
3230   0.0342311    0.617837     9.95468  0.000149076
3240   0.0358084    0.618461     8.79059  -0.000429274
3250   0.0428165    0.621235     10.0318  6.91758e-05
3260   0.0344249    0.617914     8.63004  0.000744779
3270    0.027921     0.61534     7.66842  -4.82535e-05
3280     0.03539    0.618296     8.18793  -0.000135859
3290   0.0306381    0.616416     8.34981  0.000246924
3300   0.0304515    0.616342     7.46661  -0.000121873
3310   0.0330756     0.61738     7.50631  0.00010022
3320   0.0284471    0.615549     6.86458  0.000470976
3330   0.0236561    0.613653     5.70221  9.34042e-05
3340    0.026579    0.614809     5.34027  -6.94847e-05
3350   0.0250458    0.614203     5.82098  -3.27615e-05
3360   0.0272343    0.615069     6.82343  -2.69618e-06
3370   0.0250997    0.614224     6.34162  0.000228721
3380   0.0226598    0.613258      5.8209  3.47046e-05
3390   0.0244056    0.613949     5.86103  0.000140121
3400   0.0198574     0.61215     6.86368  -5.51599e-05
3410   0.0255088    0.614386     6.06018  -0.000189979
3420    0.023657    0.613653     4.81642  -1.03481e-05
3430   0.0257158    0.614468     5.05707  9.55809e-05
3440   0.0217454    0.612897     5.65871  0.000420282
3450   0.0173101    0.611142     5.77917  6.58469e-05
3460   0.0204284    0.612375     5.81847  0.000210645
3470   0.0130972    0.609474     6.54136  0.000240861
3480   0.0156112    0.610469     7.30265  -3.13306e-05
3490   0.0137238    0.609722     5.69829  0.000204251
3500   0.0115262    0.608853     5.09743  -3.15113e-05
3510   0.0143541    0.609972      7.4634  0.000251375
3520  0.00649868    0.606863     5.41869  5.2426e-05
3530   0.0133056    0.609557     6.98124  -0.000658755
3540   0.0196738    0.612077     6.73953  -9.30578e-05
3550   0.0151667    0.610293     7.78434  0.000159432
3560   0.0164852    0.610815     7.18129  0.000191177
3570   0.0113432     0.60878     5.89908  -8.6272e-05
3580   0.0182106    0.611498     7.01988  -0.000201404
3590   0.0153713    0.610374     6.97952  0.000655562
3600  0.00509935     0.60631     7.02238  0.000308508
3610   0.0092011    0.607933     5.69797  -0.000449586
3620   0.0140911    0.609868     7.09986  -8.07364e-06
3630  0.00936257    0.607997     7.70271  -7.11265e-05
3640   0.0155136    0.610431     7.58068  -0.000280951
3650   0.0149816     0.61022     6.97901  0.00021722
3660   0.0111692    0.608712     7.58049  0.000147314
3670   0.0120353    0.609054     8.02189  -0.000306045
3680   0.0172901    0.611134     6.65653  -0.000173335
3690    0.015502    0.610426     8.02068  0.000485466
3700  0.00758079    0.607292     5.85661  0.000360603
3710  0.00828995    0.607572     6.01621  -0.000110425
3720   0.0097893    0.608166     6.61684  0.000394494
3730  0.000400067     0.60445     6.13801  0.000394863
3740  0.00189204     0.60504     5.93639  -0.000379032
3750  0.00798071     0.60745     5.25289  -0.00026088
3760  0.00710963    0.607105      5.5337  0.000103142
3770  0.00591786    0.606634     6.41655  0.000190958
3780  0.00329046    0.605594     4.41099  -0.000414241
3790   0.0142027    0.609912      5.2101  -7.36569e-06
3800  0.00343778    0.605652     4.57103  0.000878333
3810  -0.00336397    0.602961     4.73217  0.000280876
3820  -0.00217973    0.603429      3.5272  -0.000134661
3830  -0.000670745    0.604026     5.65193  -0.000167189
3840  0.00116405    0.604752     3.84764  0.000387573
3850  -0.0084222    0.600959     4.53118  0.000581295
3860  -0.0104619    0.600152     5.13274  -0.000272004
3870  -0.00298213    0.603112     6.01312  -4.56327e-05
3880  -0.0095492    0.600513     5.41285  0.000212265
3890  -0.00722742    0.601432     6.77625  0.000181235
3900  -0.0131739    0.599079     6.01539  -0.000306467
3910  -0.00109808    0.603857      6.6141  -0.000403705
3920  -0.0050998    0.602274     5.09018  0.000237841
3930  -0.0058549    0.601975     5.53206  0.000206224
3940  -0.00922429    0.600642     4.89029  0.000525638
3950  -0.0163677    0.597815     5.41254  0.00015837
3960  -0.0123917    0.599388     4.97082  -0.000152044
3970  -0.0133268    0.599018     4.72911  0.000274534
3980  -0.0178824    0.597216      5.2516  0.000135181
3990  -0.0160304    0.597948     5.17107  -0.000202037
4000  -0.0138416    0.598815     6.05235  -1.26828e-05
4010  -0.0157768    0.598049     4.64835  0.00024352
4020   -0.018712    0.596887       5.051  0.00016966
4030  -0.0191699    0.596706     4.72947  -0.000452403
4040  -0.00966398    0.600468     5.20849  0.000137493
4050  -0.0219198    0.595618     5.41058  0.000594392
4060  -0.0215518    0.595764     6.33379  -0.000228804
4070  -0.0173437    0.597429     4.00595  4.84269e-06
4080  -0.0216487    0.595725     4.28693  0.000213492
4090  -0.0216136    0.595739     4.40731  6.36101e-05
4100  -0.0229209    0.595222     3.44456  -0.000163183
4110  -0.0183499    0.597031     4.92768  -0.00016325
4120  -0.0196559    0.596514     3.08345  0.000366899
4130  -0.0256879    0.594127     5.20857  -0.0001559
4140  -0.0165379    0.597748     4.16427  -7.05616e-05
4150  -0.0242767    0.594685     3.96473  0.000732849
4160  -0.0311949    0.591948     3.96594  0.000107262
4170  -0.0264219    0.593836     4.80718  -3.59322e-05
4180  -0.0304762    0.592232     5.08901  -0.000215699
4190  -0.0221079    0.595544     5.88992  -0.000343364
4200  -0.0236089     0.59495     5.56827  0.000235838
4210  -0.0268247    0.593677     5.00668  -3.23849e-06
4220  -0.0235442    0.594975     6.12947  0.000134548
4230  -0.0295157    0.592612     5.20783  0.000349012
4240  -0.0305244    0.592213     3.48269  1.49724e-05
4250  -0.0298151    0.592494     4.72512  0.000144512
4260  -0.0334147    0.591069     6.12927  0.000196456
4270  -0.0337442    0.590939      5.0463  0.000353162
4280  -0.0404779    0.588274     5.04739  0.000163175
4290  -0.0370077    0.589648     5.04681  -0.000121895
4300    -0.03804    0.589239     4.88571  -0.000114033
4310  -0.0347271     0.59055     4.32415  -0.000166308
4320  -0.0347138    0.590555     5.76769  -0.000114801
4330  -0.0324311    0.591459     4.76419  4.2364e-05
4340  -0.0355611     0.59022     4.88492  0.000155892
4350  -0.0355489    0.590225     3.72122  0.000367336
4360  -0.0429078    0.587313     3.04066  -0.000291299
4370  -0.0297229     0.59253     4.64173  -0.000422601
4380  -0.0344558    0.590657     3.88134  0.00057118
4390  -0.0411465     0.58801      4.8444  0.000334416
4400  -0.0411441    0.588011     4.72293  0.000123718
4410  -0.0436209    0.587031     4.48247  0.000221528
4420  -0.0455747    0.586258     3.60025  -4.42017e-05
4430  -0.0427369     0.58738     5.84591  -0.000302091
4440  -0.0395329    0.588648     3.99941  -0.000240696
4450   -0.037923    0.589285     5.08306  0.00067845
4460  -0.0531019    0.583279     4.32286  0.000742007
4470  -0.0527631    0.583413     4.72293  -0.000132553
4480  -0.0504508    0.584328     4.40128  -0.000150801
4490  -0.0497471    0.584606     4.00016  3.74386e-05
4500  -0.0511996    0.584032     4.96256  0.000145567
4510  -0.0526584    0.583454     4.24037  -0.00011578
4520   -0.048884    0.584948     4.44015  -7.95618e-05
4530  -0.0510672    0.584084     4.88116  0.000327495
4540  -0.0554339    0.582356     4.76172  0.000246773
4550  -0.0560027    0.582131     5.08153  -0.000243211
4560  -0.0505697    0.584281     3.75763  9.3668e-05
4570   -0.057876     0.58139     4.19895  0.000458051
4580  -0.0597307    0.580656     5.00186  0.000121783
4590  -0.0603117    0.580426     4.84108  -3.3462e-05
4600  -0.0590614    0.580921     5.36238  -2.42209e-05
4610  -0.0598272    0.580618     5.52152  0.000315889
4620  -0.0653792    0.578421     4.76023  0.000215217
4630  -0.0641316    0.578914     4.68002  -3.26261e-05
4640  -0.0647267    0.578679     4.84025  -0.000227192
4650  -0.0595877    0.580712     4.27804  -0.000144143
4660  -0.0618438     0.57982     4.51931  0.000253928
4670  -0.0646663    0.578703     5.60241  0.000152526
4680  -0.0648944    0.578613     4.84021  -0.000238112
4690  -0.0599041    0.580587     5.72165  0.000162987
4700  -0.0681541    0.577323     4.63934  0.00038685
4710  -0.0676411    0.577526     5.60162  0.000126746
4720   -0.070689     0.57632     5.07996  0.000164478
4730  -0.0709306    0.576224     4.67845  9.00682e-05
4740  -0.0724904    0.575607     4.39814  0.000269383
4750  -0.0763183    0.574092     4.03731  -0.000249259
4760  -0.0675052    0.577579     5.80081  -0.000135459
4770  -0.0736091    0.575164     4.07673  0.00039353
4780  -0.0753758    0.574465      5.3605  -1.29767e-05
4790  -0.0733496    0.575267      6.4831  0.000149106
4800  -0.0783579    0.573285     6.12281  0.000415989
4810  -0.0816693    0.571975     5.80261  -0.000165035
4820  -0.0750572    0.574591     8.28739  -0.000155154
4830  -0.0785662    0.573202     7.36524  0.000178991
4840   -0.078637    0.573174     6.56296  0.000170405
4850  -0.0819743    0.571854     7.56572  -0.000291457
4860  -0.0728079    0.575481     8.12547  7.5246e-05
4870  -0.0834793    0.571258     6.40249  0.000585912
4880  -0.0845261    0.570844     6.08116  -6.94241e-05
4890  -0.0820908    0.571808     6.80302  -0.000127597
4900  -0.0819742    0.571854     6.72242  7.58637e-05
4910  -0.0836081    0.571207     6.28129  0.000251352
4920  -0.0870012    0.569865     6.80334  -0.000148059
4930  -0.0806469    0.572379     6.92208  -0.000450896
4940  -0.0779833    0.573433     7.20226  0.000105597
4950  -0.0827588    0.571543     4.43439  0.000409677
4960  -0.0861769    0.570191     5.79893  -1.86786e-06
4970  -0.0827215    0.571558     5.55797  8.75901e-05
4980  -0.0879287    0.569498     5.31681  0.000264924
4990  -0.0880199    0.569462     3.59253  0.000442258
