Time   Number   
ps   
0          22          33
10          25          33
20          27          28
30          24          33
40          27          24
50          25          31
60          23          34
70          25          31
80          27          25
90          25          30
100          23          34
110          25          29
120          25          32
130          24          25
140          28          24
150          26          30
160          25          28
170          28          28
180          26          33
190          28          27
200          28          22
210          29          30
220          20          35
230          25          31
240          24          26
250          21          33
260          24          33
270          21          32
280          21          28
290          24          33
300          27          21
310          20          34
320          22          29
330          23          34
340          28          28
350          23          31
360          26          28
370          23          31
380          24          35
390          22          31
400          23          36
410          24          30
420          31          18
430          25          29
440          21          27
450          22          28
460          25          31
470          26          23
480          24          30
490          23          29
500          27          26
510          23          26
520          27          21
530          24          25
540          26          25
550          23          27
560          24          23
570          23          24
580          21          33
590          23          25
600          27          20
610          23          26
620          26          26
630          27          28
640          20          27
650          23          30
660          27          26
670          21          31
680          25          24
690          19          31
700          22          28
710          24          29
720          19          31
730          23          30
740          21          26
750          17          26
760          22          27
770          25          24
780          25          29
790          23          35
800          26          25
810          23          24
820          26          23
830          30          25
840          23          30
850          20          26
860          27          24
870          21          30
880          25          27
890          20          32
900          27          25
910          24          27
920          22          28
930          23          28
940          24          30
950          26          25
960          25          26
970          29          29
980          25          25
990          22          26
1000          28          27
1010          19          25
1020          21          25
1030          26          25
1040          25          23
1050          23          35
1060          26          27
1070          26          27
1080          24          23
1090          23          23
1100          23          31
1110          25          28
1120          24          29
1130          23          22
1140          23          26
1150          25          28
1160          25          23
1170          22          26
1180          23          27
1190          22          32
1200          23          28
1210          26          25
1220          22          37
1230          25          25
1240          26          29
1250          24          27
1260          25          27
1270          23          29
1280          24          26
1290          26          20
1300          26          27
1310          25          24
1320          25          25
1330          22          25
1340          25          26
1350          22          25
1360          27          27
1370          25          25
1380          26          23
1390          22          35
1400          31          22
1410          22          27
1420          23          28
1430          23          30
1440          22          34
1450          23          33
1460          26          32
1470          23          25
1480          28          24
1490          24          30
1500          20          34
1510          31          24
1520          20          36
1530          24          30
1540          25          28
1550          28          29
1560          28          25
1570          26          28
1580          24          33
1590          25          21
1600          25          33
1610          26          23
1620          26          26
1630          26          24
1640          26          25
1650          23          27
1660          21          30
1670          26          23
1680          27          28
1690          22          28
1700          24          27
1710          28          25
1720          24          30
1730          24          24
1740          24          28
1750          30          22
1760          25          25
1770          26          27
1780          24          26
1790          21          30
1800          24          30
1810          23          23
1820          27          21
1830          21          27
1840          23          23
1850          27          24
1860          22          25
1870          27          24
1880          24          23
1890          21          30
1900          26          28
1910          20          27
1920          24          24
1930          25          24
1940          21          29
1950          24          31
1960          26          21
1970          24          20
1980          25          25
1990          24          23
2000          23          28
2010          23          28
2020          23          32
2030          23          26
2040          26          29
2050          26          19
2060          23          30
2070          23          24
2080          23          28
2090          21          28
2100          23          27
2110          29          22
2120          27          22
2130          23          26
2140          26          17
2150          21          26
2160          23          33
2170          27          22
2180          22          27
2190          23          30
2200          30          21
2210          24          28
2220          25          29
2230          22          34
2240          23          28
2250          21          30
2260          23          27
2270          21          24
2280          23          27
2290          25          28
2300          26          28
2310          28          27
2320          24          30
2330          28          27
2340          24          30
2350          25          23
2360          25          26
2370          25          30
2380          20          35
2390          20          30
2400          24          26
2410          18          38
2420          22          31
2430          27          24
2440          26          26
2450          24          27
2460          25          27
2470          24          31
2480          27          27
2490          20          34
2500          23          34
2510          21          31
2520          25          24
2530          22          28
2540          27          29
2550          26          29
2560          27          24
2570          22          31
2580          21          32
2590          27          25
2600          24          24
2610          22          32
2620          23          31
2630          24          31
2640          23          28
2650          22          32
2660          25          28
2670          26          27
2680          25          28
2690          23          27
2700          24          31
2710          24          27
2720          20          30
2730          26          25
2740          23          28
2750          24          27
2760          20          35
2770          25          25
2780          21          32
2790          24          24
2800          24          22
2810          24          31
2820          24          29
2830          25          25
2840          22          29
2850          24          31
2860          22          35
2870          23          31
2880          23          30
2890          25          26
2900          23          28
2910          25          25
2920          25          25
2930          26          30
2940          21          28
2950          21          31
2960          25          26
2970          27          27
2980          29          25
2990          21          31
3000          24          24
3010          24          22
3020          22          29
3030          26          29
3040          26          30
3050          25          26
3060          25          32
3070          26          21
3080          20          31
3090          25          30
3100          20          34
3110          26          23
3120          23          31
3130          24          33
3140          22          27
3150          24          30
3160          20          31
3170          24          26
3180          26          26
3190          27          30
3200          24          29
3210          24          25
3220          22          33
3230          22          32
3240          26          24
3250          23          30
3260          29          23
3270          23          25
3280          27          23
3290          25          22
3300          22          24
3310          24          28
3320          25          28
3330          29          22
3340          23          27
3350          26          28
3360          24          28
3370          22          26
3380          27          24
3390          28          22
3400          25          25
3410          25          26
3420          24          24
3430          22          27
3440          21          26
3450          21          32
3460          25          30
3470          22          27
3480          22          27
3490          25          25
3500          22          23
3510          23          24
3520          23          28
3530          24          24
3540          23          27
3550          20          30
3560          25          23
3570          23          32
3580          22          26
3590          23          25
3600          24          27
3610          29          20
3620          21          34
3630          28          24
3640          20          32
3650          24          29
3660          22          26
3670          25          25
3680          24          30
3690          23          29
3700          22          29
3710          23          31
3720          27          27
3730          28          28
3740          28          23
3750          28          21
3760          27          19
3770          29          18
3780          24          28
3790          24          25
3800          25          28
3810          24          29
3820          26          30
3830          22          25
3840          22          26
3850          25          27
3860          23          21
3870          24          26
3880          26          24
3890          27          24
3900          26          22
3910          25          25
3920          28          27
3930          25          31
3940          25          29
3950          22          28
3960          26          21
3970          27          30
3980          25          28
3990          27          26
4000          30          21
4010          26          28
4020          27          28
4030          29          25
4040          26          30
4050          27          25
4060          26          27
4070          26          29
4080          30          28
4090          27          30
4100          28          29
4110          26          27
4120          25          28
4130          26          28
4140          27          32
4150          28          22
4160          23          27
4170          23          34
4180          25          25
4190          24          27
4200          22          29
4210          23          26
4220          24          27
4230          24          25
4240          24          25
4250          21          26
4260          26          23
4270          22          25
4280          23          24
4290          26          24
4300          24          24
4310          22          27
4320          23          25
4330          26          28
4340          26          24
4350          26          25
4360          31          20
4370          24          23
4380          24          26
4390          26          26
4400          23          26
4410          27          21
4420          22          29
4430          27          21
4440          25          18
4450          28          23
4460          24          26
4470          24          24
4480          26          20
4490          26          26
4500          23          24
4510          26          29
4520          24          26
4530          26          23
4540          24          25
4550          25          26
4560          29          21
4570          24          25
4580          27          23
4590          24          25
4600          25          27
4610          26          27
4620          27          25
4630          26          18
4640          26          26
4650          29          23
4660          27          27
4670          27          26
4680          25          28
4690          29          25
4700          30          14
4710          25          25
4720          27          23
4730          29          21
4740          28          23
4750          30          22
4760          27          23
4770          23          27
4780          26          25
4790          29          20
4800          23          25
4810          24          30
4820          25          31
4830          26          25
4840          24          29
4850          24          27
4860          27          25
4870          31          23
4880          23          29
4890          27          29
4900          24          25
4910          25          24
4920          26          25
4930          23          24
4940          28          24
4950          24          31
4960          25          24
4970          28          28
4980          26          31
4990          26          30
5000          28          25
5010          24          29
5020          28          25
5030          25          31
5040          25          26
5050          26          27
5060          24          32
5070          26          25
5080          23          25
5090          26          26
5100          28          25
5110          30          21
5120          26          25
5130          28          22
5140          28          26
5150          31          20
5160          27          26
5170          30          19
5180          28          22
5190          27          21
5200          27          30
5210          29          26
5220          29          20
5230          28          23
5240          27          28
5250          29          26
5260          27          27
5270          29          28
5280          26          23
5290          29          20
5300          27          25
5310          26          26
5320          27          28
5330          28          28
5340          24          32
5350          25          31
5360          27          33
5370          24          23
5380          27          28
5390          27          27
5400          26          24
5410          27          25
5420          28          30
5430          26          24
5440          25          24
5450          28          25
5460          26          28
5470          27          28
5480          27          25
5490          23          28
5500          29          25
5510          24          33
5520          30          21
5530          27          26
5540          23          32
5550          27          32
5560          24          28
5570          25          31
5580          27          26
5590          25          28
5600          26          27
5610          28          24
5620          27          22
5630          27          26
5640          25          33
5650          27          27
5660          28          24
5670          25          25
5680          24          29
5690          26          23
5700          29          26
5710          24          29
5720          29          21
5730          27          26
5740          25          31
5750          25          30
5760          27          25
5770          29          21
5780          27          23
5790          23          29
5800          28          30
5810          26          24
5820          24          26
5830          29          21
5840          27          28
5850          26          27
5860          28          24
5870          23          33
5880          26          29
5890          28          29
5900          23          26
5910          29          24
5920          25          30
5930          26          26
5940          25          28
5950          30          27
5960          27          24
5970          25          24
5980          27          27
5990          27          28
6000          25          23
6010          28          23
6020          27          26
6030          24          26
6040          27          28
6050          27          23
6060          21          32
6070          28          21
6080          24          25
6090          25          28
6100          26          25
6110          23          23
6120          24          25
6130          28          22
6140          27          26
6150          31          24
6160          27          31
6170          30          21
6180          31          23
6190          28          29
6200          24          27
6210          30          24
6220          26          25
6230          27          26
6240          28          21
6250          29          24
6260          24          24
6270          26          25
6280          26          29
6290          26          24
6300          27          23
6310          26          26
6320          26          22
6330          23          29
6340          27          24
6350          25          26
6360          27          29
6370          31          23
6380          29          25
6390          27          24
6400          26          25
6410          26          28
6420          26          27
6430          27          30
6440          28          26
6450          22          31
6460          27          25
6470          28          26
6480          26          29
6490          28          25
6500          24          32
6510          29          25
6520          29          24
6530          29          24
6540          29          23
6550          29          29
6560          27          28
6570          28          27
6580          31          25
6590          28          25
6600          27          21
6610          28          30
6620          26          29
6630          31          31
6640          28          23
6650          27          19
6660          30          25
6670          26          26
6680          26          30
6690          29          22
6700          29          26
6710          25          32
6720          26          27
6730          28          24
6740          31          24
6750          24          30
6760          29          23
6770          29          23
6780          28          26
6790          25          30
6800          26          26
6810          27          27
6820          21          33
6830          25          24
6840          30          25
6850          27          26
6860          28          21
6870          26          23
6880          25          30
6890          30          29
6900          30          27
6910          25          30
6920          28          27
6930          23          30
6940          26          26
6950          28          27
6960          28          27
6970          29          24
6980          23          30
6990          23          28
7000          28          25
7010          24          22
7020          27          28
7030          29          23
7040          28          21
7050          28          25
7060          23          31
7070          24          32
7080          30          26
7090          25          22
7100          28          29
7110          29          25
7120          27          27
7130          25          26
7140          23          30
7150          24          34
7160          21          35
7170          29          28
7180          29          29
7190          25          34
7200          23          35
7210          25          31
7220          23          29
7230          26          33
7240          22          36
7250          25          31
7260          22          31
7270          26          30
7280          24          32
7290          27          24
7300          28          30
7310          24          31
7320          27          30
7330          28          29
7340          28          26
7350          24          31
7360          29          32
7370          25          30
7380          24          34
7390          29          32
7400          25          30
7410          33          29
7420          22          36
7430          27          31
7440          29          30
7450          28          30
7460          27          30
7470          23          31
7480          28          29
7490          24          34
7500          25          29
7510          28          25
7520          27          29
7530          31          29
7540          28          27
7550          29          29
7560          26          30
7570          27          26
7580          29          23
7590          27          30
7600          29          23
7610          28          23
7620          25          28
7630          33          28
7640          28          23
7650          28          28
7660          27          29
7670          28          26
7680          28          33
7690          29          31
7700          30          29
7710          29          28
7720          29          27
7730          23          32
7740          24          25
7750          25          26
7760          28          24
7770          28          25
7780          34          15
7790          29          24
7800          28          29
7810          26          26
7820          30          21
7830          29          22
7840          27          25
7850          29          24
7860          31          25
7870          32          27
7880          28          26
7890          28          27
7900          30          25
7910          31          23
7920          30          22
7930          28          24
7940          28          24
7950          26          26
7960          25          29
7970          28          22
7980          26          28
7990          30          24
8000          27          26
8010          26          26
8020          28          27
8030          28          25
8040          25          25
8050          26          26
8060          25          25
8070          30          26
8080          26          28
8090          27          29
8100          30          28
8110          28          29
8120          25          26
8130          27          30
8140          27          25
8150          26          24
8160          24          31
8170          23          30
8180          28          28
8190          26          27
8200          29          24
8210          25          28
8220          20          31
8230          25          28
8240          23          23
8250          22          25
8260          26          26
8270          25          28
8280          26          22
8290          24          29
8300          27          28
8310          26          28
8320          25          28
8330          27          27
8340          25          24
8350          28          23
8360          27          22
8370          21          29
8380          25          29
8390          27          19
8400          23          26
8410          25          26
8420          24          22
8430          22          29
8440          20          29
8450          24          27
8460          25          23
8470          24          22
8480          24          18
8490          25          25
8500          24          22
8510          24          27
8520          24          27
8530          25          24
8540          26          23
8550          26          22
8560          23          23
8570          26          22
8580          27          23
8590          25          28
8600          21          30
8610          27          21
8620          27          26
8630          23          28
8640          21          29
8650          24          24
8660          25          24
8670          27          28
8680          24          29
8690          22          28
8700          24          28
8710          27          19
8720          19          29
8730          20          34
8740          23          32
8750          25          25
8760          25          23
8770          20          33
8780          20          30
8790          23          31
8800          21          33
8810          25          27
8820          28          28
8830          25          28
8840          25          29
8850          17          32
8860          23          28
8870          22          33
8880          24          26
8890          23          30
8900          25          27
8910          25          28
8920          24          23
8930          28          24
8940          25          20
8950          20          29
8960          24          28
8970          21          32
8980          24          24
8990          25          22
9000          23          31
9010          26          27
9020          23          22
9030          24          24
9040          19          32
9050          29          21
9060          27          29
9070          26          26
9080          28          23
9090          28          26
9100          27          27
9110          27          25
9120          26          24
9130          24          32
9140          26          29
9150          25          28
9160          28          25
9170          25          26
9180          25          25
9190          27          27
9200          26          28
9210          24          25
9220          23          30
9230          26          24
9240          26          33
9250          26          29
9260          28          26
9270          24          30
9280          29          23
9290          25          31
9300          24          34
9310          28          27
9320          30          28
9330          30          28
9340          27          30
9350          30          23
9360          26          29
9370          26          24
9380          28          26
9390          25          30
9400          26          31
9410          25          31
9420          27          29
9430          29          27
9440          27          31
9450          24          34
9460          29          26
9470          25          29
9480          28          27
9490          31          26
9500          25          31
9510          25          33
9520          29          30
9530          29          27
9540          28          27
9550          25          30
9560          33          26
9570          29          30
9580          32          27
9590          28          30
9600          28          25
9610          29          28
9620          29          27
9630          27          31
9640          30          33
9650          28          26
9660          30          25
9670          27          30
9680          33          27
9690          31          26
9700          29          24
9710          30          28
9720          32          25
9730          30          21
9740          31          21
9750          27          28
9760          26          29
9770          25          27
9780          24          27
9790          24          27
9800          25          31
9810          29          28
9820          30          25
9830          31          28
9840          31          28
9850          29          30
9860          28          24
9870          30          29
9880          28          27
9890          26          30
9900          27          27
9910          31          28
9920          32          25
9930          30          26
9940          32          30
9950          32          24
9960          29          27
9970          27          29
9980          31          27
9990          29          24
10000          28          24
