Time   C(t)   
ps   
0           1           1  6.94456e-10   0.0773873
10    0.220735    0.836339     1.18115    0.039563
20     0.20874     0.83382    0.088668  0.00173872
30    0.185961    0.829036    0.148738  0.00121724
40    0.184395    0.828707     1.57568  0.000390843
50    0.178144    0.827394      1.0899  0.000767721
60    0.169041    0.825482    0.725324  0.000733479
70    0.163475    0.824313     0.51349  0.000386471
80    0.161312    0.823859     1.27189  0.000415931
90    0.155156    0.822566      1.0284  0.000281151
100    0.155689    0.822678    0.846414  0.000396249
110    0.147231    0.820902     1.21025  0.000560855
120    0.144472    0.820322    0.573265  0.000333443
130    0.140562    0.819501   -0.125627  0.000119298
140    0.142086    0.819821     -1.5526  0.000435186
150    0.131858    0.817673    -1.03644  0.000284784
160     0.13639    0.818625    0.360275  0.000214301
170    0.127572    0.816773     1.05931  0.000753205
180    0.121326    0.815461  -0.0950721  0.000323155
190    0.121109    0.815416     2.27321  0.000273645
200    0.115853    0.814312   -0.671213  -8.66029e-05
210    0.122841    0.815779    0.116553  -5.00064e-05
220    0.116853    0.814522    -0.58124  0.000592244
230    0.110996    0.813292    -0.24722  0.000412652
240      0.1086    0.812788   -0.672666  -6.20112e-06
250     0.11112    0.813318   -0.612654  -5.94556e-06
260    0.108719    0.812813   -0.308773  -5.70305e-05
270    0.112261    0.813557    0.814703  -0.000311022
280    0.114939     0.81412    0.116405  0.000182614
290    0.108609     0.81279    0.238058  0.000415405
300    0.106631    0.812375   -0.673199  0.000161556
310    0.105378    0.812112   -0.703546  1.44765e-06
320    0.106602    0.812369   -0.581893  3.07504e-05
330    0.104763    0.811983   -0.794526  -0.000115409
340     0.10891    0.812854   -0.582901  0.000155298
350    0.101657     0.81133   -0.370118  0.000133048
360    0.106249    0.812295     1.23896  3.13461e-05
370     0.10103    0.811199   -0.339327  -0.000211265
380    0.110475    0.813182  -0.0973551  -0.000122831
390    0.103486    0.811714   -0.521792  0.000206937
400    0.106336    0.812313    0.449239  0.000215295
410   0.0991805     0.81081    0.206318  0.000532049
420   0.0956951    0.810078    -0.70402  -7.15047e-05
430    0.100611     0.81111    0.509547  0.00042348
440   0.0872255    0.808299   -0.946793  0.000453024
450   0.0915501    0.809208    -1.46384  4.05699e-05
460   0.0864141    0.808129   -0.217793  -0.000478353
470    0.101117    0.811217    -1.16043  -0.00044126
480   0.0952393    0.809982    -1.03828  0.000261839
490   0.0958804    0.810117   -0.917277  0.000292461
500   0.0893901    0.808754   -0.188573  0.000329895
510   0.0892825    0.808731   -0.674237  -0.000361468
520   0.0966194    0.810272    -1.06934  -0.000175519
530   0.0927929    0.809469    -1.64726  0.000621859
540   0.0841822     0.80766    -1.70694  0.000279363
550   0.0872056    0.808295    -1.76843  0.000332903
560   0.0775242    0.806262    -2.07146  0.000183196
570   0.0835417    0.807526    -1.16106  -0.000227725
580   0.0820787    0.807218    -1.43433    0.000274
590   0.0780617    0.806375   -0.916981  0.000259426
600   0.0768902    0.806129   -0.583494  0.000305303
610   0.0719556    0.805092    -0.58385  0.000215437
620   0.0725814    0.805224    -1.25168  -0.000235856
630   0.0766728    0.806083    -2.40634  0.000254076
640   0.0674999    0.804157     -2.0714  0.000374651
650   0.0691797    0.804509    -2.73935  -0.000213464
660   0.0717692    0.805053   -0.705503  -0.000251721
670   0.0742142    0.805567     -1.7075  -0.000600659
680   0.0837824    0.807576    -2.28462  0.000202197
690   0.0701702    0.804717   -0.796988  0.00108175
700   0.0621473    0.803032    -2.19355  -0.000275717
710   0.0756846    0.805876   -0.919411  -0.000579331
720    0.073734    0.805466   -0.918285  0.00027136
730   0.0702574    0.804736     -1.7695  0.000447234
740   0.0647893    0.803587    -1.25272  0.00035653
750   0.0631268    0.803238    -1.46515  -4.7452e-05
760   0.0657383    0.803787    -1.40499  -0.000299627
770   0.0691193    0.804497     -1.8911  -6.29339e-05
780    0.066997    0.804051    -1.34385  0.000296817
790   0.0631829     0.80325    -1.16245  0.000481603
800   0.0573649    0.802028   -0.675482  0.000106214
810   0.0610587    0.802804    -1.16221  -0.000177619
820   0.0609173    0.802774    -1.61809  -0.000139774
830   0.0638541    0.803391    0.568313  0.000430376
840   0.0523098    0.800966    -1.04047  0.000692839
850   0.0499974    0.800481   -0.373084  -0.000517646
860   0.0626627    0.803141    -1.61839  -0.000401967
870   0.0580367    0.802169     -1.1623  0.000486201
880   0.0529387    0.801098   -0.888679  0.000340069
890   0.0512353    0.800741   -0.402037  -0.000116573
900   0.0552702    0.801588   -0.858985  9.30313e-05
910   0.0493747     0.80035   -0.251816  -9.38544e-05
920   0.0571473    0.801982   -0.768509  -0.000280059
930   0.0549759    0.801526    -2.16508  0.000427794
940   0.0485914    0.800185    -1.64832  0.000225653
950   0.0504628    0.800578   -0.465043  -0.00010918
960    0.050775    0.800644    -1.71035  -0.000469045
970   0.0598437    0.802549   -0.222388  -0.000297413
980   0.0567233    0.801893    -1.43768  -3.23962e-05
990   0.0604916    0.802685   -0.890518  0.000430646
1000   0.0481103    0.800084   -0.890696  0.000744846
1010   0.0455947    0.799556   -0.130785  -0.000109847
1020   0.0503073    0.800546    -1.89282  -0.000251309
1030   0.0506209    0.800612    -1.98347  0.000110357
1040   0.0481001    0.800082   -0.495449  0.000394304
1050   0.0427348    0.798955   -0.313784  7.1306e-05
1060    0.046674    0.799783    -1.40629  -2.28463e-05
1070   0.0431917    0.799051    -2.86296  -0.000244938
1080   0.0515728    0.800812   -0.739022  -0.000347817
1090   0.0501481    0.800512   -0.982062  0.000182331
1100   0.0479262    0.800046      -1.407  0.000349364
1110   0.0431608    0.799045   -0.617636  -0.000206426
1120   0.0520547    0.800913    -1.46847  -0.000214046
1130   0.0474417    0.799944    -3.77531  0.000198933
1140    0.048076    0.800077    -2.19667  -0.000278839
1150   0.0530185    0.801115    -2.28753  0.000159981
1160   0.0448764    0.799405    -2.86373  0.00025551
1170   0.0479083    0.800042     -2.6519  0.000120645
1180   0.0424635    0.798898    -3.01668  -0.00014396
1190   0.0507875    0.800647    -1.55963  -0.000352046
1200   0.0495044    0.800377    -2.62348  0.000546055
1210   0.0398664    0.798353    -2.68289  0.00050662
1220    0.039372    0.798249    -2.40966  -4.71117e-05
1230   0.0408086    0.798551    -2.74362  -0.000748209
1240   0.0543362    0.801392    -0.67996  -9.57131e-05
1250   0.0427229    0.798953   -0.921309  0.000484171
1260   0.0446527    0.799358    -1.77241  -5.57393e-05
1270   0.0438377    0.799187    -2.25804  2.49607e-05
1280   0.0441535    0.799253    -1.95514  0.000252005
1290   0.0387976    0.798129     -2.2883  -0.000161599
1300   0.0473855    0.799932    -2.71428  0.000245037
1310   0.0338968    0.797099    -2.44009  0.000325695
1320   0.0408716    0.798564    -1.34788  -0.000331938
1330   0.0405356    0.798494    -3.77671  2.54998e-05
1340   0.0403616    0.798457    -3.83722  -0.000382399
1350   0.0481836      0.8001    -1.40991  0.00022991
1360   0.0357634    0.797491    -2.04603  0.000188305
1370   0.0444175    0.799309     -1.9258  -0.000186673
1380   0.0394969    0.798275    -1.80388  0.00100908
1390   0.0242358     0.79507   -0.436416  0.000805637
1400   0.0233841    0.794891    -1.01356  -0.000210626
1410   0.0284483    0.795955    -1.77321  -0.000334152
1420   0.0300672    0.796295    -2.44166  -5.67613e-06
1430   0.0285619    0.795979    -2.89746  6.00389e-05
1440   0.0288664    0.796043    -2.13849  -0.000377177
1450   0.0361054    0.797563    -2.95839  -3.05233e-05
1460   0.0294768    0.796171    -1.65155  0.000142328
1470   0.0332588    0.796965    -2.71508  0.000151609
1480   0.0264447    0.795534     -2.5333  0.000474806
1490   0.0237627    0.794971    -2.86664  0.000177179
1500   0.0229011     0.79479    -2.29011  -1.35091e-05
1510   0.0240329    0.795028    -2.01717  -0.00022984
1520   0.0274979    0.795755    -1.86502  2.81109e-05
1530   0.0234707     0.79491    -1.80474  0.000686893
1540     0.01376     0.79287    -4.05033  0.000262136
1550   0.0182279    0.793809    -3.56556  -0.000355253
1560   0.0208651    0.794362    -2.50298  -0.000105065
1570   0.0203292     0.79425    -2.77637  0.000196223
1580   0.0169406    0.793538    -2.62428  0.000146287
1590   0.0174035    0.793635    -2.74546  -0.000180841
1600   0.0205574    0.794298    -1.10582  -0.00027373
1610   0.0228781    0.794785    -2.71561  0.000332038
1620   0.0139167    0.792903    -2.62457  -0.000266578
1630   0.0282097    0.795905    -2.71547  -0.000156064
1640    0.017038    0.793559     -4.1729  0.000611302
1650   0.0159836    0.793337    -2.62451  0.000130919
1660   0.0144196    0.793009    -3.65612  0.000207447
1670   0.0118347    0.792466    -3.80839  4.3706e-06
1680   0.0143322     0.79299    -2.38115  -0.000411588
1690   0.0200664    0.794195      -3.476  9.7856e-05
1700    0.012375    0.792579    -4.32526  0.000293185
1710   0.0142027    0.792963    -2.41197  -0.000225611
1720   0.0168872    0.793527    -3.26313  -0.000140739
1730   0.0170175    0.793554    -2.68592  -0.000158392
1740   0.0200551    0.794192    -2.01856  0.000106682
1750   0.0148839    0.793106     -2.4435  0.000483448
1760   0.0103861    0.792162    -2.92848  0.000321665
1770  0.00845058    0.791755    -2.74732  0.000554441
1780  -0.000702701    0.789833    -2.16923  1.36794e-05
1790  0.00817699    0.791698    -1.92719  -0.000467214
1800  0.00864158    0.791795    -2.32253  -2.93171e-05
1810  0.00876333    0.791821    -4.26519  9.99845e-05
1820  0.00664189    0.791375    -3.26325  -8.99378e-05
1830   0.0105621    0.792199    -2.80908  -0.000271502
1840   0.0120719    0.792516    -2.77791  -0.000350272
1850   0.0175675     0.79367     -2.5656  -0.000212045
1860   0.0163128    0.793406    -2.89947  0.000368748
1870   0.0101926    0.792121    -3.53663  0.000890907
1880  -0.0015053    0.789664     -2.5955  0.000553278
1890  -0.000872984    0.789797    -4.14386  -0.000167899
1900  0.00185268    0.790369    -3.81067  -0.000429993
1910  0.00772688    0.791603    -3.05239  0.000119539
1920  -0.000538094    0.789867    -2.08011  0.00014528
1930  0.00482128    0.790993    -3.35529  0.000111422
1940  -0.00276653    0.789399    -3.59813  3.19423e-05
1950  0.00418243    0.790859    -4.26634  -0.000318245
1960  0.00359836    0.790736    -3.68946  0.000392517
1970  -0.0036679     0.78921    -3.93179  -0.000231826
1980  0.00823489     0.79171    -3.75001  -0.000116686
1990  -0.00133417      0.7897    -4.02307  0.000534675
2000  -0.0024586    0.789464     -3.8719  -0.000143648
2010  0.00153879    0.790303    -4.44834  -0.000285309
2020  0.00324758    0.790662    -4.47924  0.000183239
2030  -0.00212598    0.789534    -4.17533  -0.000348768
2040   0.0102229    0.792127    -3.62918  -0.000756979
2050   0.0130136    0.792713    -3.99355  0.000582907
2060  -0.0014352    0.789679    -3.20377  8.47867e-05
2070   0.0113179    0.792357    -3.65867  -0.000546069
2080  0.00948618    0.791973    -4.51007   0.0002548
2090  0.00622186    0.791287    -3.02252  0.000300039
2100  0.00348541    0.790712    -2.77897  -0.000101716
2110  0.00825617    0.791714    -2.65786  0.000113451
2120  0.00121639    0.790236    -4.87446  -3.66108e-06
2130  0.00832939     0.79173    -3.47751  6.90923e-05
2140  -0.000165458    0.789946    -3.93363  0.000356019
2150  0.00120901    0.790234    -4.41846  0.000375559
2160  -0.00767664    0.788368    -3.72064  -0.000174043
2170  0.00468988    0.790965    -2.38485  -0.000561253
2180  0.00354841    0.790726    -3.17452  -0.000202027
2190  0.00873041    0.791814    -3.60026  -0.000220204
2200   0.0079525     0.79165     -3.5698  0.000349662
2210  0.00173717    0.790345    -3.62963  -3.99314e-05
2220  0.00875113    0.791818     -3.0531  -0.000393467
2230  0.00960652    0.791998    -3.26517  -0.000558656
2240   0.0199242    0.794165    -3.60026  3.25383e-05
2250  0.00895575    0.791861    -3.59931  0.000414341
2260   0.0116374    0.792424    -1.96101  2.36693e-05
2270  0.00848236    0.791762    -3.05334  -7.72801e-05
2280    0.013183    0.792749    -3.02394  2.36977e-05
2290  0.00800841    0.791662    -4.05576  -2.2676e-05
2300   0.0136365    0.792844    -3.93395  0.000152389
2310  0.00496063    0.791022    -3.02296  0.000280513
2320  0.00802629    0.791666    -4.05555  -0.000205815
2330  0.00907694    0.791887    -4.78488  -0.000298605
2340   0.0139984     0.79292    -3.60032  0.000217707
2350   0.0047228    0.790972    -3.47914  0.000272722
2360  0.00854395    0.791775    -4.17688  -0.000105093
2370  0.00682466    0.791414    -3.84342  0.000255566
2380  0.00343262    0.790701    -4.63243  0.000311845
2390  0.00058776    0.790104    -3.78222  -0.000114615
2400  0.00572491    0.791183     -2.6594  0.000248344
2410  -0.00437911    0.789061    -4.69348  -0.000124448
2420  0.00821388    0.791705    -4.45094  -0.00017928
2430  -0.000793519    0.789814    -4.87592  -1.30692e-05
2440  0.00847527     0.79176    -4.66382  -0.000170865
2450  0.00262378    0.790531    -4.81475  -2.26051e-05
2460  0.00892737    0.791855    -4.17759  -0.000143648
2470  0.00549674    0.791135    -5.20991  0.000334038
2480   0.0022466    0.790452    -3.78308  5.2958e-05
2490  0.00443758    0.790912    -6.39402  -9.70755e-05
2500  0.00418811     0.79086    -5.99945  -0.000144684
2510  0.00733125     0.79152    -4.05602  0.000232635
2520  -0.000464589    0.789883    -3.81289  5.71867e-06
2530  0.00721688    0.791496    -4.45133  -0.000456869
2540   0.0086728    0.791802     -3.5102  0.00039429
2550  -0.000668928     0.78984    -5.08911  -9.87357e-05
2560   0.0106475    0.792216    -2.99398  -0.000183182
2570  0.00299471    0.790609    -5.02791  0.000376354
2580  0.00312044    0.790636     -3.6926  -0.000203176
2590  0.00705823    0.791463    -3.81358  -0.000270253
2600   0.0085255    0.791771    -4.36044  -9.91615e-05
2610  0.00904146    0.791879    -4.93726  0.000350031
2620  0.00152488    0.790301     -4.2389  9.17684e-05
2630  0.00720609    0.791494    -3.08558  -0.000463354
2640    0.010792    0.792247    -4.23905  0.000284373
2650  0.00151864    0.790299    -4.26925  0.000505471
2660  0.000682551    0.790124    -4.84604  -0.000773369
2670    0.016986    0.793548    -4.81679  -0.000128209
2680  0.00324673    0.790662    -4.66411  0.00070947
2690  0.00279661    0.790568    -5.15061  -0.000119297
2700  0.00563268    0.791163    -5.08917  -0.000371103
2710   0.0102187    0.792126    -5.02907  0.000258234
2720  0.000467994    0.790079    -4.08785  -7.21574e-05
2730   0.0116618     0.79243    -4.42226  -0.000265358
2740  0.00577515    0.791193     -5.3331  8.32116e-05
2750   0.0099976     0.79208    -5.57614  5.48879e-05
2760  0.00467739    0.790963    -4.66521  0.000552327
2770  -0.00104894     0.78976    -5.60598  0.000104085
2780  0.00259568    0.790525    -5.84893  -0.000198479
2790  0.00292064    0.790594    -5.97017  -0.000258078
2800  0.00775724    0.791609    -4.08936  -9.16122e-05
2810  0.00475288    0.790978    -5.69767  0.000104256
2820  0.00567213    0.791172    -5.39418  0.000134367
2830  0.00206553    0.790414    -5.21148  9.4947e-05
2840  0.00377319    0.790773    -5.36363  -0.000190731
2850  0.00588016    0.791215    -6.60813  -0.000181337
2860  0.00739993    0.791534    -5.85012  0.000224021
2870  0.00139973    0.790274    -6.33614  -3.36025e-05
2880  0.00807198    0.791676    -6.33608  6.89646e-06
2890   0.0012618    0.790245    -5.42464  0.000652198
2900  -0.00497198    0.788936     -6.5785  0.000166239
2910  -0.00206298    0.789547    -5.06049  -0.000101929
2920  -0.00293341    0.789364    -6.76058  -9.24921e-05
2930  -0.000213138    0.789936    -6.94349  -0.000932299
2940   0.0157126     0.79328    -5.60729  -0.000663664
2950   0.0130601    0.792723    -5.09154  -4.52244e-05
2960   0.0166171     0.79347    -6.12404  -0.000115168
2970   0.0153635    0.793207    -6.45753  9.53443e-05
2980   0.0147102     0.79307    -5.24262  0.000196294
2990   0.0114376    0.792382    -5.57664  0.00071096
3000  0.000490983    0.790083    -6.42656  5.59096e-06
3010   0.0113258    0.792359     -5.6676  -0.000508621
3020   0.0106634     0.79222    -6.63949  0.00012713
3030   0.0087832    0.791825    -5.60755  0.000137532
3040  0.00791277    0.791642    -6.45702  -0.000105703
3050   0.0108973    0.792269    -5.57738  -0.000176938
3060   0.0114515    0.792385    -5.24372  -0.000116587
3070    0.013229    0.792759    -6.51816  0.000158562
3080  0.00828029    0.791719    -6.27562  0.00029134
3090   0.0074022    0.791535    -6.91308  -4.11519e-06
3100   0.0083626    0.791737    -6.79223  -2.44782e-05
3110  0.00789177    0.791638    -6.30603  0.000221538
3120  0.00393183    0.790806    -5.85125  3.69656e-05
3130  0.00715245    0.791482    -5.91155  -0.000435655
3140   0.0126449    0.792636    -6.45898  0.000315506
3150  0.000842333    0.790157     -6.5801  -0.000108016
3160   0.0148053     0.79309    -5.94282  -4.44581e-05
3170  0.00173149    0.790344    -5.73001  0.00102983
3180  -0.00579133    0.788764    -7.06517  -0.000459338
3190   0.0109183    0.792273    -7.21785  -0.00070798
3200  0.00836827    0.791738    -6.97469  0.000161811
3210  0.00768203    0.791594    -7.76379  -6.66942e-05
3220  0.00970216    0.792018    -6.03413  -0.000389934
3230   0.0154807    0.793232    -6.85381  -0.000192406
3240   0.0135503    0.792826    -7.27875  0.000454826
3250  0.00638419    0.791321    -7.24838  3.69089e-05
3260   0.0128121    0.792671    -6.67197  -0.000360588
3270    0.013596    0.792836    -7.30931  -3.64548e-05
3280   0.0135412    0.792824    -7.91745  0.000321054
3290  0.00717487    0.791487    -6.82403  -9.99419e-05
3300     0.01554    0.793244     -6.6113  -0.000130692
3310  0.00978872    0.792036    -6.85461  0.000290517
3320  0.00972969    0.792024    -7.09727  -0.000195002
3330   0.0136888    0.792855    -7.24989  -0.000258816
3340    0.014906    0.793111    -7.58326  0.000642378
3350  0.000841198    0.790157    -8.25017  0.000409275
3360   0.0067205    0.791392    -6.91492  -0.00121691
3370   0.0251795    0.795268    -6.18705  -6.80423e-05
3380  0.00808135    0.791678    -6.73189  0.000996922
3390  0.00524103    0.791081    -6.88475  -0.000528388
3400   0.0186491    0.793897    -7.12865  -7.88268e-05
3410  0.00681756    0.791412    -6.42976  0.000895206
3420  0.000744988    0.790137    -7.30996  -0.000315719
3430   0.0131319    0.792738    -5.91422  -5.69313e-05
3440  0.00188361    0.790376    -6.39912  0.000242824
3450  0.00827547    0.791718    -5.85303  -0.000758951
3460   0.0170626    0.793564    -5.30711  3.87961e-05
3470  0.00749955    0.791555    -5.82253  0.000503115
3480  0.00700033    0.791451    -5.94404  0.000180074
3490  0.00389806    0.790799    -7.73526  -9.11298e-05
3500  0.00882293    0.791833    -6.97635  -0.00013424
3510  0.00658286    0.791363    -7.76614  -0.000135148
3520   0.0115259    0.792401    -6.24818  -0.000113267
3530  0.00884819    0.791839    -7.52295  6.05924e-05
3540    0.010314    0.792146    -6.64221  1.73547e-05
3550  0.00850109    0.791766    -7.88752  -0.000180103
3560   0.0139161    0.792903    -7.58388  6.5133e-06
3570  0.00837083    0.791738    -6.39941  0.000731337
3580  -0.000710648    0.789831    -7.03761  -1.54532e-05
3590  0.00867989    0.791803    -6.55307  -0.000311888
3600   0.0055271    0.791141    -7.03723  -0.000302792
3610   0.0147357    0.793075    -6.52252  -0.000369159
3620   0.0129103    0.792692    -7.34199  0.000249379
3630  0.00974813    0.792028    -6.70466  0.000183466
3640  0.00924097    0.791921    -6.55289  5.08437e-05
3650  0.00873126    0.791814    -6.46215  -0.000505641
3660   0.0193538    0.794045    -5.76308  -0.000149565
3670   0.0117226    0.792442    -6.79611  0.000976587
3680  -0.000177946    0.789943    -7.18985  0.000229882
3690  0.00712492    0.791477    -7.52405  -0.000608223
3700   0.0119865    0.792498    -6.18945  1.80642e-05
3710  0.00676364    0.791401    -5.58139  0.00015219
3720   0.0089427    0.791858    -6.46188  4.06976e-05
3730  0.00594969     0.79123    -6.85609  -0.000196365
3740     0.01287    0.792683    -5.76376  7.48536e-05
3750  0.00445262    0.790915    -7.12954  -8.44887e-05
3760   0.0145598    0.793038    -7.95014  -0.000105873
3770  0.00657009     0.79136    -6.67458  0.000164621
3780   0.0112673    0.792347    -6.76645  -0.000129429
3790  0.00915867    0.791904    -7.25188  0.000416172
3800  0.00294391    0.790599    -6.31006  0.000120702
3810  0.00674463    0.791397    -7.06926  -0.000346398
3820  0.00987187    0.792054     -6.9789  -0.00015307
3830  0.00980603     0.79204    -7.64641  0.00037326
3840  0.00240667    0.790486    -7.46403  -0.000475501
3850   0.0193161    0.794037    -7.55641  -0.000750991
3860   0.0174265     0.79364    -7.49568  0.000154745
3870   0.0162212    0.793387     -7.5562  0.000212996
3880   0.0131666    0.792746    -7.92006  0.000398391
3890  0.00825333    0.791714    -7.43437  0.000214443
3900   0.0088777    0.791845    -6.97875  -2.7898e-05
3910  0.00881129    0.791831    -7.64721  -0.000353181
3920   0.0159413    0.793328    -7.16137  -0.000318699
3930   0.0151853    0.793169    -6.79736  -0.000390331
3940    0.023748    0.794968     -8.3159  -0.000157625
3950   0.0183378    0.793832    -7.79936  0.000238112
3960   0.0189857    0.793968     -6.8277  0.000145819
3970   0.0154214    0.793219    -6.73637  0.000591478
3980  0.00715614    0.791483    -7.46543  0.000170212
3990   0.0120172    0.792504    -6.12973  -0.000439841
4000    0.015953    0.793331    -7.25315  -0.000335344
4010    0.018724    0.793913    -7.86047  0.000218246
4020    0.011588    0.792414    -7.46549  0.000135361
4030   0.0160168    0.793344    -7.73944  -0.000277817
4040   0.0171444    0.793581     -7.6182  0.000349818
4050  0.00902046    0.791875    -6.91898  0.000837438
4060  0.000395624    0.790063    -7.52603  -0.000183523
4070   0.0126909    0.792646    -7.13194  -0.00121969
4080   0.0247895    0.795187      -7.436  0.000137716
4090  0.00993658    0.792067    -7.55659  0.00086579
4100  0.00747372     0.79155    -7.55712  -2.91042e-05
4110   0.0105187    0.792189    -7.92193  -0.000400903
4120   0.0154918    0.793234    -7.80028  0.00011504
4130  0.00821786    0.791706    -7.52659  0.000644379
4140  0.00260419    0.790527    -7.89138  -4.86723e-06
4150   0.0083152    0.791727    -8.16411  -0.000354501
4160  0.00969421    0.792016    -7.98322  0.000418839
4170  -6.15857e-05    0.789967     -9.1969  0.000395057
4180  0.00179308    0.790357    -8.83301  0.000227385
4190  -0.00460928    0.789012    -9.44018  -0.000137574
4200  0.00454457    0.790935    -9.40945  -0.000222177
4210  -0.000165742    0.789945    -7.95255  -0.000468406
4220   0.0139127    0.792902    -9.47112  -0.000162493
4230  0.00308411    0.790628    -7.40604  0.00047201
4240  0.00447248     0.79092    -8.25693  0.000143251
4250  0.000219097    0.790026     -8.1052  0.000376907
4260  -0.00306566    0.789336    -8.77318  0.000193527
4270  -0.00365144    0.789213    -8.10475  9.3088e-06
4280  -0.00325184    0.789297    -8.25693  -0.00097951
4290   0.0159388    0.793328    -7.98437  -0.000275433
4300  0.00225682    0.790454    -7.46824  0.000402989
4310  0.00787899    0.791635    -8.19704  -0.000202793
4320  0.00631267    0.791306     -9.4112  9.46206e-05
4330  0.00598658    0.791238    -9.77518  2.02211e-05
4340  0.00590825    0.791221    -8.31819  0.000432632
4350  -0.00266606     0.78942    -8.04436  -0.000342581
4360   0.0127599     0.79266    -8.86523  -0.000115977
4370  -0.000346526    0.789908     -7.9238  0.000521705
4380  0.00232578    0.790469    -7.40731  -0.000393623
4390  0.00752594    0.791561    -8.65233  -0.000104894
4400  0.00442367    0.790909     -9.4416  0.000639044
4410  -0.00525493    0.788877    -8.16625  0.000438308
4420  -0.0043425    0.789068    -8.50012  -0.000484271
4430  0.00443048    0.790911    -8.07627  -6.63394e-05
4440  -0.00301571    0.789347    -9.10791  0.000847697
4450  -0.0125235     0.78735    -8.25714  0.000124335
4460  -0.00550241    0.788825    -8.31822  -0.00062684
4470  1.33388e-05    0.789983    -8.37974  -7.93945e-05
4480  -0.00391452    0.789158    -8.65235  0.000700885
4490  -0.0140044    0.787039    -9.07771  0.000677201
4500  -0.0174585    0.786314    -8.40982  -0.000103972
4510  -0.0119249    0.787476       -8.38  -5.20499e-05
4520  -0.0164176    0.786532    -8.44055  -0.00019513
4530  -0.00802232    0.788295    -8.10647  -6.53745e-05
4540  -0.0151101    0.786807    -8.25826  0.000230904
4550  -0.0126404    0.787326    -8.37989  -0.000117694
4560  -0.0127562    0.787301    -8.83556  0.000414568
4570  -0.0209318    0.785584    -8.74417  0.00074093
4580  -0.0275748    0.784189    -8.59252  0.000104511
4590   -0.023022    0.785145     -8.5019  -0.000416952
4600  -0.0192357     0.78594    -8.01564  -0.000444751
4610   -0.014127    0.787013    -7.65231  0.000235998
4620  -0.0239557    0.784949    -8.77481  3.82853e-05
4630  -0.0148927    0.786853    -8.04676  -0.000157313
4640  -0.0208094     0.78561    -7.74293  -9.3386e-05
4650  -0.0130249    0.787245    -8.86686  0.000304083
4660  -0.0268911    0.784333    -8.13747  0.000528388
4670  -0.0235927    0.785025    -7.40936  2.77987e-05
4680  -0.0274471    0.784216    -8.77543  0.000412752
4690  -0.0318477    0.783292    -8.65369  -3.85833e-05
4700  -0.0266754    0.784378    -8.50288  -2.45491e-05
4710  -0.0313568    0.783395    -8.04655  0.000201714
4720  -0.0307097    0.783531    -8.74461  -6.48494e-05
4730  -0.0300598    0.783667    -7.56109  -9.19386e-05
4740  -0.0288709    0.783917    -8.13803  0.000122916
4750  -0.0325181    0.783151    -8.89649  -0.00022737
4760  -0.0243235    0.784872    -8.74526  -0.000402634
4770  -0.0244654    0.784842     -8.2596  0.000771581
4780  -0.0397551    0.781631     -7.9863  0.000380228
4790    -0.03207    0.783245    -8.92782  -3.69655e-05
4800  -0.0390158    0.781786    -8.83642  0.000260703
4810   -0.037284     0.78215    -8.50284  -6.45231e-05
4820  -0.0377253    0.782057    -7.89621  7.14906e-05
4830  -0.0387138     0.78185    -7.77473  -0.000475416
4840   -0.028217    0.784054    -8.07847  -0.000284245
4850  -0.0330289    0.783044    -8.41198  0.000372281
4860  -0.0356627     0.78249    -8.13869  0.000208866
4870  -0.0372063    0.782166    -8.80699  0.000444197
4880  -0.0445466    0.780625    -8.26013  -0.00021765
4890  -0.0328533     0.78308    -8.10935  -0.000272126
4900  -0.0391041    0.781768    -8.41261  0.000307503
4910  -0.0390033    0.781789    -8.38238  0.000309489
4920  -0.0452939    0.780468    -9.01948  0.000435343
4930  -0.0477102     0.77996    -8.10846  -7.87985e-05
4940  -0.0437179    0.780799    -9.01975  6.13587e-05
4950  -0.0489374    0.779702    -8.38214  0.000130749
4960  -0.0463329    0.780249    -8.62497  -8.40072e-06
4970  -0.0487693    0.779738    -8.44325  0.000201998
4980  -0.0503728    0.779401    -8.04839  0.000203006
4990  -0.0528295    0.778885    -6.86484  0.000204013
