Time   Number   
ps   
0          34          46
10          38          44
20          35          39
30          35          45
40          34          38
50          33          49
60          33          47
70          31          41
80          29          43
90          34          42
100          36          48
110          34          48
120          33          41
130          33          43
140          34          46
150          36          48
160          32          38
170          31          41
180          38          42
190          34          38
200          35          49
210          32          46
220          34          44
230          38          50
240          34          50
250          37          43
260          31          43
270          33          41
280          36          48
290          33          39
300          34          40
310          38          46
320          35          45
330          35          43
340          36          42
350          33          45
360          35          39
370          36          44
380          33          41
390          38          42
400          38          42
410          34          46
420          34          42
430          39          43
440          38          44
450          39          49
460          35          43
470          39          43
480          34          46
490          35          47
500          37          47
510          35          41
520          33          39
530          36          44
540          36          44
550          37          39
560          35          45
570          35          43
580          30          42
590          34          40
600          32          48
610          33          43
620          34          44
630          34          38
640          30          44
650          34          46
660          31          37
670          31          45
680          35          47
690          30          50
700          33          45
710          34          40
720          33          41
730          34          38
740          34          38
750          35          45
760          32          46
770          32          46
780          34          44
790          34          46
800          33          47
810          36          42
820          31          45
830          35          49
840          34          44
850          34          44
860          35          39
870          32          48
880          33          47
890          35          41
900          29          43
910          32          42
920          30          40
930          34          46
940          37          39
950          28          36
960          37          47
970          35          41
980          37          47
990          35          47
1000          33          51
1010          32          46
1020          31          35
1030          32          48
1040          35          43
1050          36          42
1060          36          46
1070          33          43
1080          37          49
1090          36          46
1100          38          46
1110          34          40
1120          35          51
1130          33          47
1140          34          50
1150          37          49
1160          32          40
1170          32          44
1180          36          46
1190          34          44
1200          34          42
1210          33          45
1220          34          40
1230          31          37
1240          36          48
1250          36          44
1260          37          47
1270          33          41
1280          34          48
1290          36          38
1300          32          40
1310          37          49
1320          37          41
1330          32          46
1340          38          46
1350          34          42
1360          33          43
1370          36          48
1380          35          49
1390          37          43
1400          37          47
1410          37          47
1420          39          43
1430          35          45
1440          31          41
1450          37          43
1460          34          44
1470          33          37
1480          33          47
1490          37          43
1500          36          44
1510          36          48
1520          37          47
1530          36          46
1540          31          41
1550          33          47
1560          32          50
1570          38          46
1580          33          39
1590          34          44
1600          32          44
1610          32          42
1620          37          43
1630          35          49
1640          38          52
1650          34          52
1660          37          45
1670          32          40
1680          35          51
1690          36          42
1700          34          44
1710          35          45
1720          37          45
1730          35          47
1740          35          47
1750          34          46
1760          35          47
1770          37          47
1780          32          42
1790          34          48
1800          31          41
1810          34          42
1820          31          49
1830          36          52
1840          36          44
1850          31          51
1860          37          47
1870          36          48
1880          33          43
1890          35          43
1900          31          43
1910          36          42
1920          36          42
1930          33          43
1940          34          54
1950          32          46
1960          32          46
1970          35          43
1980          34          42
1990          37          47
2000          35          49
2010          36          44
2020          32          44
2030          26          36
2040          26          40
2050          32          40
2060          38          44
2070          35          41
2080          30          46
2090          34          44
2100          29          37
2110          36          44
2120          33          41
2130          34          38
2140          36          42
2150          32          40
2160          33          43
2170          34          42
2180          35          35
2190          30          40
2200          35          39
2210          36          40
2220          32          42
2230          32          40
2240          33          39
2250          32          42
2260          32          40
2270          33          37
2280          31          33
2290          34          38
2300          35          39
2310          32          44
2320          38          46
2330          30          36
2340          33          41
2350          27          43
2360          34          38
2370          35          43
2380          29          45
2390          32          42
2400          35          41
2410          30          44
2420          33          39
2430          36          38
2440          35          43
2450          33          41
2460          35          39
2470          32          36
2480          34          38
2490          31          39
2500          29          43
2510          32          44
2520          34          44
2530          33          41
2540          35          43
2550          34          42
2560          35          47
2570          29          41
2580          28          36
2590          29          39
2600          30          44
2610          32          48
2620          30          38
2630          36          42
2640          37          47
2650          32          42
2660          37          43
2670          30          36
2680          33          41
2690          35          47
2700          30          34
2710          34          38
2720          32          36
2730          35          41
2740          34          44
2750          30          42
2760          36          42
2770          36          42
2780          35          43
2790          32          44
2800          38          46
2810          32          44
2820          33          53
2830          32          38
2840          31          39
2850          30          40
2860          30          42
2870          34          44
2880          34          42
2890          30          40
2900          32          42
2910          33          37
2920          36          42
2930          32          42
2940          33          45
2950          32          44
2960          34          36
2970          27          41
2980          35          43
2990          35          43
3000          36          44
3010          34          42
3020          34          40
3030          34          44
3040          32          40
3050          32          40
3060          32          42
3070          33          45
3080          30          42
3090          35          45
3100          30          38
3110          32          40
3120          35          47
3130          35          41
3140          40          42
3150          34          46
3160          37          41
3170          34          40
3180          36          44
3190          34          44
3200          32          38
3210          31          41
3220          34          46
3230          31          45
3240          36          40
3250          33          43
3260          34          42
3270          35          39
3280          32          42
3290          33          39
3300          32          44
3310          35          41
3320          34          48
3330          35          41
3340          34          44
3350          33          41
3360          32          50
3370          33          41
3380          33          39
3390          33          45
3400          33          49
3410          31          43
3420          30          40
3430          30          42
3440          34          36
3450          29          39
3460          32          44
3470          33          41
3480          40          42
3490          32          40
3500          36          44
3510          31          45
3520          40          44
3530          31          47
3540          31          45
3550          34          48
3560          32          48
3570          30          44
3580          34          48
3590          36          48
3600          38          48
3610          37          47
3620          32          50
3630          33          43
3640          34          44
3650          33          51
3660          34          38
3670          34          42
3680          33          41
3690          33          39
3700          33          45
3710          33          41
3720          34          42
3730          30          44
3740          35          43
3750          32          48
3760          32          46
3770          36          42
3780          36          44
3790          33          45
3800          33          41
3810          35          51
3820          31          41
3830          35          43
3840          34          44
3850          30          38
3860          30          42
3870          33          45
3880          34          42
3890          38          44
3900          32          38
3910          36          44
3920          32          42
3930          34          42
3940          33          45
3950          31          39
3960          34          40
3970          34          44
3980          31          47
3990          27          41
4000          33          43
4010          32          44
4020          34          44
4030          33          43
4040          37          45
4050          39          39
4060          34          34
4070          35          45
4080          35          45
4090          35          37
4100          37          39
4110          34          44
4120          34          44
4130          35          45
4140          33          47
4150          38          52
4160          37          45
4170          37          45
4180          30          48
4190          36          46
4200          35          49
4210          33          45
4220          36          46
4230          34          42
4240          33          47
4250          33          47
4260          36          48
4270          34          42
4280          32          46
4290          34          42
4300          35          45
4310          33          49
4320          30          40
4330          30          44
4340          34          48
4350          34          48
4360          33          39
4370          32          44
4380          33          39
4390          35          45
4400          33          47
4410          33          51
4420          32          44
4430          35          43
4440          33          45
4450          33          49
4460          36          48
4470          31          51
4480          35          53
4490          29          41
4500          36          56
4510          36          46
4520          35          47
4530          39          43
4540          37          41
4550          36          48
4560          36          52
4570          34          46
4580          34          44
4590          32          50
4600          36          42
4610          34          46
4620          33          49
4630          32          44
4640          35          47
4650          37          43
4660          35          51
4670          42          46
4680          37          57
4690          39          41
4700          35          49
4710          34          48
4720          37          51
4730          37          45
4740          37          43
4750          33          45
4760          36          48
4770          33          43
4780          38          42
4790          36          48
4800          35          47
4810          28          46
4820          35          43
4830          35          41
4840          34          44
4850          36          52
4860          30          48
4870          35          45
4880          33          45
4890          37          43
4900          37          45
4910          38          46
4920          37          47
4930          36          52
4940          33          45
4950          34          48
4960          37          45
4970          33          41
4980          38          42
4990          35          49
5000          38          44
5010          41          45
5020          40          46
5030          38          46
5040          36          42
5050          36          40
5060          32          42
5070          39          45
5080          32          50
5090          34          42
5100          34          42
5110          35          49
5120          33          47
5130          33          49
5140          32          42
5150          33          45
5160          27          51
5170          35          43
5180          35          51
5190          29          45
5200          37          51
5210          35          45
5220          35          41
5230          33          43
5240          31          45
5250          34          44
5260          38          50
5270          37          49
5280          36          46
5290          32          44
5300          38          48
5310          34          42
5320          35          43
5330          37          43
5340          34          46
5350          35          45
5360          39          49
5370          34          46
5380          32          42
5390          37          45
5400          33          51
5410          33          49
5420          36          44
5430          37          51
5440          34          46
5450          33          45
5460          33          43
5470          37          47
5480          39          49
5490          38          48
5500          32          50
5510          39          51
5520          39          47
5530          35          43
5540          35          47
5550          35          45
5560          38          44
5570          40          52
5580          34          38
5590          37          45
5600          33          47
5610          34          46
5620          35          43
5630          34          50
5640          35          47
5650          40          48
5660          36          42
5670          36          44
5680          35          47
5690          36          44
5700          35          45
5710          35          47
5720          36          52
5730          38          48
5740          34          44
5750          38          44
5760          37          51
5770          35          51
5780          36          46
5790          38          48
5800          36          40
5810          33          45
5820          35          41
5830          38          48
5840          35          47
5850          32          40
5860          39          47
5870          41          47
5880          39          47
5890          36          52
5900          32          42
5910          34          52
5920          33          47
5930          35          39
5940          32          42
5950          34          42
5960          33          41
5970          35          47
5980          37          41
5990          35          49
6000          32          42
6010          37          49
6020          32          46
6030          34          48
6040          38          54
6050          34          60
6060          34          44
6070          29          45
6080          34          48
6090          33          45
6100          34          48
6110          35          41
6120          29          41
6130          32          48
6140          33          47
6150          33          45
6160          31          49
6170          34          40
6180          30          48
6190          32          44
6200          37          45
6210          32          42
6220          30          40
6230          32          40
6240          31          45
6250          28          46
6260          30          42
6270          32          44
6280          32          38
6290          35          41
6300          37          41
6310          33          43
6320          28          34
6330          29          41
6340          32          40
6350          30          42
6360          36          48
6370          35          43
6380          39          49
6390          34          40
6400          34          36
6410          35          45
6420          33          43
6430          34          46
6440          36          42
6450          36          46
6460          28          40
6470          32          44
6480          31          41
6490          32          40
6500          29          39
6510          36          44
6520          34          46
6530          34          38
6540          30          40
6550          35          45
6560          34          40
6570          33          41
6580          35          45
6590          36          48
6600          32          40
6610          31          43
6620          32          42
6630          31          37
6640          29          37
6650          29          41
6660          34          46
6670          31          43
6680          33          45
6690          35          45
6700          34          40
6710          36          42
6720          33          43
6730          35          45
6740          32          42
6750          34          44
6760          35          41
6770          36          42
6780          32          46
6790          31          45
6800          32          40
6810          28          32
6820          31          43
6830          31          41
6840          29          39
6850          34          46
6860          30          42
6870          32          44
6880          30          44
6890          31          45
6900          34          40
6910          27          39
6920          34          42
6930          33          37
6940          33          39
6950          28          36
6960          31          43
6970          33          45
6980          31          45
6990          35          37
7000          32          46
7010          32          48
7020          32          42
7030          32          42
7040          29          45
7050          27          35
7060          25          39
7070          32          42
7080          28          42
7090          32          44
7100          34          46
7110          30          42
7120          36          44
7130          34          46
7140          33          45
7150          31          41
7160          33          49
7170          33          43
7180          33          45
7190          32          38
7200          28          38
7210          33          51
7220          29          43
7230          30          38
7240          32          46
7250          34          42
7260          35          37
7270          31          43
7280          34          42
7290          33          47
7300          31          45
7310          32          42
7320          33          47
7330          34          38
7340          28          32
7350          30          44
7360          32          38
7370          30          44
7380          28          42
7390          32          40
7400          28          38
7410          27          41
7420          33          37
7430          33          45
7440          30          44
7450          37          43
7460          33          43
7470          34          44
7480          35          41
7490          33          47
7500          34          50
7510          28          46
7520          33          43
7530          28          46
7540          30          40
7550          29          39
7560          33          37
7570          31          51
7580          30          48
7590          32          50
7600          31          47
7610          32          44
7620          33          43
7630          29          39
7640          32          48
7650          33          41
7660          35          45
7670          35          45
7680          33          45
7690          30          48
7700          32          44
7710          31          45
7720          33          43
7730          32          40
7740          39          47
7750          33          39
7760          35          45
7770          32          40
7780          30          38
7790          30          44
7800          32          40
7810          33          51
7820          32          44
7830          34          50
7840          32          48
7850          37          45
7860          32          54
7870          34          48
7880          37          51
7890          38          50
7900          39          49
7910          37          43
7920          33          45
7930          30          42
7940          34          42
7950          35          47
7960          36          46
7970          34          42
7980          32          46
7990          32          48
8000          33          41
8010          32          42
8020          30          42
8030          32          48
8040          31          41
8050          35          47
8060          32          50
8070          34          42
8080          34          42
8090          33          39
8100          33          49
8110          32          46
8120          27          37
8130          38          44
8140          34          44
8150          36          46
8160          34          42
8170          36          46
8180          37          43
8190          34          40
8200          34          42
8210          37          43
8220          32          48
8230          36          52
8240          35          51
8250          38          56
8260          35          53
8270          36          44
8280          35          41
8290          30          40
8300          34          42
8310          30          48
8320          33          45
8330          30          40
8340          32          46
8350          39          45
8360          34          42
8370          38          46
8380          37          47
8390          36          52
8400          31          47
8410          34          54
8420          39          49
8430          37          43
8440          37          41
8450          40          46
8460          37          43
8470          37          49
8480          35          45
8490          34          46
8500          33          39
8510          39          43
8520          34          38
8530          37          45
8540          34          44
8550          36          44
8560          33          43
8570          33          47
8580          34          50
8590          34          50
8600          36          54
8610          29          45
8620          40          46
8630          37          41
8640          35          43
8650          34          42
8660          39          47
8670          33          51
8680          39          43
8690          33          47
8700          34          42
8710          34          40
8720          30          38
8730          36          42
8740          33          43
8750          32          46
8760          34          40
8770          33          41
8780          34          38
8790          32          40
8800          35          41
8810          29          41
8820          30          42
8830          30          40
8840          30          44
8850          34          40
8860          30          48
8870          30          48
8880          29          39
8890          32          44
8900          32          42
8910          29          41
8920          31          47
8930          31          41
8940          32          48
8950          33          41
8960          34          46
8970          32          40
8980          33          45
8990          32          46
9000          38          46
9010          30          46
9020          35          45
9030          32          40
9040          31          43
9050          30          46
9060          30          40
9070          32          42
9080          32          42
9090          30          36
9100          30          48
9110          33          41
9120          32          38
9130          29          33
9140          35          39
9150          29          51
9160          33          41
9170          34          38
9180          33          47
9190          31          37
9200          33          41
9210          31          37
9220          32          40
9230          33          45
9240          34          40
9250          34          38
9260          33          39
9270          31          43
9280          33          39
9290          32          42
9300          38          44
9310          37          45
9320          38          50
9330          38          44
9340          34          46
9350          36          42
9360          36          46
9370          36          52
9380          38          50
9390          35          43
9400          35          49
9410          38          56
9420          37          49
9430          39          51
9440          33          51
9450          37          43
9460          34          46
9470          37          45
9480          35          47
9490          37          45
9500          40          46
9510          35          39
9520          32          48
9530          36          42
9540          31          45
9550          36          46
9560          32          40
9570          34          42
9580          36          46
9590          33          41
9600          35          43
9610          31          43
9620          36          38
9630          31          43
9640          32          48
9650          32          44
9660          32          40
9670          33          41
9680          36          44
9690          31          43
9700          33          47
9710          35          43
9720          35          43
9730          33          39
9740          31          41
9750          30          38
9760          36          42
9770          35          39
9780          34          46
9790          33          41
9800          32          42
9810          36          46
9820          33          43
9830          32          44
9840          36          46
9850          37          45
9860          32          44
9870          34          48
9880          37          45
9890          33          39
9900          36          42
9910          33          35
9920          35          47
9930          36          52
9940          36          46
9950          31          47
9960          31          47
9970          32          38
9980          32          46
9990          32          38
10000          29          41
