Time   C(t)   
ps   
0           1           1  2.89081e-10   0.0207949
10    0.795827    0.826431    0.959196   0.0115237
20    0.769525    0.804072    0.726485  0.00225258
30    0.750776    0.788133      1.0938  0.00174715
40    0.734583    0.774367    0.725083  0.00151781
50    0.720419    0.762326    0.802331  0.00135384
60    0.707506    0.751349   -0.691794  0.00119046
70     0.69661    0.742086   -0.789027  0.00107729
80     0.68596    0.733032      1.0344  0.000976047
90    0.677089    0.725491     1.26622  0.000975791
100    0.666444    0.716442     1.22761  0.000870612
110    0.659677    0.710689   -0.132038  0.000863552
120    0.649173     0.70176  -0.0742632  0.000991553
130    0.639846     0.69383  -0.0932624  0.000827447
140    0.632624    0.687691    0.119369  0.00082247
150    0.623396    0.679847    0.236018  0.000749278
160    0.617639    0.674952   -0.521634  0.000677282
170    0.609851    0.668332   -0.211921  0.000643325
180    0.604772    0.664014   -0.212281  0.000683436
190    0.596182    0.656712   -0.231906   0.0007438
200    0.589896    0.651368   0.0775987  0.000603071
210    0.584121    0.646458    -0.54376  0.000649989
220    0.576896    0.640317    0.368218  0.000729933
230    0.569522    0.634048    0.698161  0.000643447
240    0.564027    0.629377    -0.38932  0.000539753
250    0.558727    0.624871    0.289851  0.000532842
260    0.553371    0.620317   0.0367763  0.000505263
270    0.548622     0.61628      0.1331  0.000562543
280     0.54212    0.610753    0.249844  0.000630203
290    0.536018    0.605565    0.598958  0.000495884
300    0.532202    0.602322  -0.0812185  0.00046832
310    0.526651    0.597603   -0.294494  0.000541779
320    0.521366     0.59311   -0.391519  0.000516331
330    0.516325    0.588824   -0.391917   0.0004251
340    0.512864    0.585883   -0.159794  0.000448018
350    0.507364    0.581207   -0.198967  0.000503197
360      0.5028    0.577327   0.0337252  0.000376979
370    0.499825    0.574798    0.343248  0.000414865
380    0.494503    0.570274     -1.3838  0.000535101
390    0.489123      0.5657    0.673249  0.000470084
400    0.485101    0.562281    0.439856  0.000369979
410    0.481723    0.559409     0.22603  0.000432438
420    0.476453    0.554929    0.652601  0.000460041
430    0.472522    0.551588  -0.00747639  0.000408612
440     0.46828    0.547982     0.72966  0.000380245
450    0.464917    0.545123    0.729167  0.000453538
460     0.45921    0.540271   0.0305789  0.000414635
470    0.456625    0.538073     1.01943  0.000333701
480    0.452536    0.534597     1.15477  0.000389382
490    0.448837    0.531453    0.494807  0.000418383
500    0.444168    0.527483    0.824694  0.000448626
510    0.439865    0.523825     1.17343  0.000366102
520    0.436846    0.521259    0.125348  0.000296262
530    0.433939    0.518788    0.978452  0.000336979
540    0.430106     0.51553    0.182271  0.000454421
550    0.424851    0.511062     0.57107  0.000431691
560    0.421473     0.50819    0.279617  0.000388975
570    0.417071    0.504448    0.356904  0.000362529
580    0.414222    0.502026   -0.070122  0.00035038
590    0.410064    0.498491     1.13323  0.000386572
600    0.406491    0.495454    0.647636  0.000326921
610    0.403525    0.492933    0.666332  0.000362144
620    0.399248    0.489296     1.15142  0.00035685
630    0.396388    0.486866    0.491168  0.000387472
640    0.391498    0.482709   -0.187984  0.000423981
650    0.387909    0.479657  0.00606503  0.000347374
660    0.384551    0.476802   0.0832559  0.000342126
670    0.381066     0.47384   -0.498967  0.000329722
680    0.377956    0.471196     0.99476  0.00033886
690    0.374289    0.468079     0.43237  0.000333506
700    0.371286    0.465526    0.819805  0.000265869
710    0.368972    0.463558     2.23634  0.000278522
720    0.365716    0.460791     1.96464  0.000280279
730    0.363366    0.458793     1.63444  0.000254473
740    0.360626    0.456464     1.92494  0.00026459
750    0.358074    0.454294     1.36149  0.000267595
760    0.355274    0.451914     1.41974   0.0002839
770    0.352396    0.449468    0.662428  0.000283273
780    0.349609    0.447098    0.934313  0.000321387
790    0.345968    0.444003    0.721131  0.000280863
800    0.343992    0.442323     0.91429  0.000337407
810     0.33922    0.438267    0.507211  0.000346485
820    0.337062    0.436432    0.467792  0.000312085
830    0.332979    0.432961    0.118374  0.000315097
840     0.33076    0.431075    0.738861  0.000298831
850    0.327002     0.42788    0.816564  0.000276229
860    0.325235    0.426378    0.815958  0.000285533
870    0.321291    0.423025    0.408766  0.000259125
880    0.320053    0.421972    0.349891  0.000191294
890    0.317465    0.419773    0.504975  0.000214939
900    0.315754    0.418318    0.349209  0.000289029
910    0.311685    0.414859    0.252165  0.000261302
920    0.310528    0.413875    0.639543  0.000199381
930    0.307697    0.411469    0.640036  0.000250171
940    0.305525    0.409622    0.309618  0.000201452
950    0.303668    0.408044    0.542348  0.000200695
960    0.301511     0.40621    0.580669  0.000230774
970    0.299053     0.40412    0.134132  0.000233705
980    0.296837    0.402236   -0.486639  0.000203317
990    0.294986    0.400663   -0.448659  0.000205064
1000    0.292735     0.39875   -0.118696  0.000260049
1010    0.289785    0.396242  -0.0215007  0.000265534
1020    0.287425    0.394235   -0.118374  0.000221434
1030    0.285357    0.392477    0.715597  0.000224435
1040    0.282936    0.390419     1.10385  0.000263491
1050    0.280087    0.387997    0.463243  0.00024038
1060    0.278128    0.386332  -0.00255841  0.000218537
1070    0.275716    0.384281    0.715673  0.000205216
1080    0.274024    0.382843   -0.158002  0.000151929
1090    0.272678    0.381698    0.346006  0.000213693
1100     0.26975     0.37921  -0.0806216  0.000252907
1110    0.267619    0.377398  -0.0227139  0.000200817
1120    0.265734    0.375795   0.0738368  0.000186235
1130    0.263895    0.374232     -0.7217  0.000223124
1140    0.261271    0.372002  -0.0232823  0.000178236
1150     0.26033    0.371202    0.287056  0.000169897
1160    0.257874    0.369113    0.131707  0.000153771
1170    0.257255    0.368587    0.461367  0.000135282
1180    0.255168    0.366813     1.10178  0.000170945
1190    0.253836    0.365681      1.3924  0.000184041
1200    0.251487    0.363684     1.17928  0.000217369
1210    0.249488    0.361985     1.10135  0.000167093
1220    0.248145    0.360843     1.66398  0.000149734
1230    0.246494    0.359439     1.41161  0.000162772
1240     0.24489    0.358076    0.305202  0.00018862
1250    0.242721    0.356232    0.518895  0.000199243
1260    0.240905    0.354688      0.4217  0.000200979
1270    0.238702    0.352815    0.246916  0.000210381
1280    0.236697    0.351111    0.285407  0.000103361
1290    0.236634    0.351058    0.886231  0.000112662
1300    0.234444    0.349196    0.614859  0.000176962
1310    0.233095    0.348049     0.14883  0.000219806
1320    0.230048    0.345458    0.712603  0.000161058
1330    0.229874    0.345311    0.944594  0.000134552
1340    0.227357    0.343171    0.964049  0.00021465
1350    0.225581    0.341661     1.58509  0.000158409
1360    0.224189    0.340477    0.187587  0.000105832
1370    0.223464    0.339862    0.614309  0.000122942
1380     0.22173    0.338387    0.633479  0.000196957
1390    0.219525    0.336513    0.613854  0.000238862
1400    0.216953    0.334326    0.808074  0.000177114
1410    0.215983    0.333502    0.768995  8.27819e-05
1420    0.215297    0.332919    0.574756  0.00012982
1430    0.213387    0.331295    0.652326  0.000183439
1440    0.211628      0.3298    0.962722  0.000178658
1450    0.209813    0.328257    0.128144  0.00016863
1460    0.208256    0.326933     1.38948  0.000115464
1470    0.207504    0.326294      1.1176  9.48489e-05
1480    0.206359     0.32532     1.25304  0.000123875
1490    0.205027    0.324188     1.21386  0.000133335
1500    0.203692    0.323053    0.650905  0.00014283
1510     0.20217    0.321759    0.980906  0.000110297
1520    0.201486    0.321178     1.85399  0.000154027
1530     0.19909    0.319141     1.07812  0.000167466
1540    0.198137     0.31833     1.93136  8.88072e-05
1550    0.197313    0.317631     1.83454  9.56431e-05
1560    0.196224    0.316704     2.14475  0.000115669
1570       0.195    0.315664     1.44618  0.000149035
1580    0.193243     0.31417     1.05772  0.000121535
1590    0.192569    0.313598     1.54246  8.87014e-05
1600    0.191469    0.312662     1.83359  8.7557e-05
1610    0.190818    0.312109     2.27954  4.12337e-05
1620    0.190644    0.311961     2.02694  0.000105299
1630    0.188712    0.310319      1.6973  0.000198776
1640    0.186669    0.308582     1.46436  0.000105799
1650    0.186596     0.30852     2.27916  -1.67958e-05
1660    0.187005    0.308867     1.69637  9.29125e-05
1670    0.184738     0.30694     1.75485  0.00019348
1680    0.183135    0.305578     2.16236  0.000157766
1690    0.181583    0.304258     2.00735  0.000148735
1700     0.18016    0.303049     2.60899  0.000116833
1710    0.179246    0.302271     1.83253  0.000102335
1720    0.178114    0.301309     2.12343  0.000110658
1730    0.177033     0.30039     1.48289  9.60879e-05
1740    0.176192    0.299675      1.7156  0.00014229
1750    0.174187    0.297971     1.42492  0.00022371
1760    0.171718    0.295872     1.87112  0.000159205
1770    0.171003    0.295264     1.30763  0.000123094
1780    0.169256    0.293779     1.38599  0.000143711
1790    0.168129    0.292821     1.69631  9.51491e-05
1800    0.167353    0.292161     1.38501  0.000185223
1810    0.164424    0.289671     2.23933  0.000270047
1820    0.161952     0.28757     1.38544  0.000207976
1830    0.160265    0.286135        1.89  0.000177115
1840     0.15841    0.284558     1.38533  0.000141963
1850    0.157426    0.283722     1.28834  0.000102663
1860    0.156356    0.282813     1.38472  0.000149532
1870    0.154435    0.281179     1.28755  0.00015946
1880    0.153167    0.280102     1.42358  0.000150264
1890     0.15143    0.278624      1.4429  0.000102434
1900    0.151119     0.27836     1.85064  5.04345e-05
1910    0.150421    0.277767     2.18024  8.22596e-05
1920    0.149473    0.276962     1.92777  0.000119735
1930    0.148026    0.275731     2.25787  0.000150429
1940    0.146465    0.274404     1.86981  0.000141101
1950    0.145204    0.273332     2.56849  0.000102656
1960    0.144412    0.272659     2.27715  0.000144586
1970    0.142312    0.270874     2.14132  0.000118455
1980    0.142043    0.270645     2.52879  9.65983e-05
1990     0.14038    0.269232     1.94666  0.000138554
2000    0.139272    0.268289     2.00466  9.56848e-05
2010    0.138467    0.267605     2.35425  0.000121091
2020     0.13685     0.26623     1.84979  0.000157706
2030    0.135313    0.264923     2.29587  0.000102086
2040    0.134808    0.264494     2.45093  5.61446e-05
2050     0.13419    0.263969      2.2373  0.000133494
2060    0.132138    0.262225     1.51918  0.000167471
2070     0.13084    0.261121     1.79089  0.000104611
2080    0.130046    0.260446     1.65532  4.43108e-05
2090    0.129954    0.260368     1.81033  6.98686e-05
2100    0.128649    0.259258     1.84937  9.39809e-05
2110    0.128075     0.25877     1.20914  5.60686e-05
2120    0.127527    0.258305    0.587615  0.000129875
2130    0.125477    0.256562     1.71342  0.000118758
2140    0.125152    0.256286     1.77142  0.000134789
2150    0.122781     0.25427     1.67445  0.000218897
2160    0.120774    0.252564      1.9269  9.56181e-05
2170    0.120869    0.252645     1.63564  0.000131624
2180    0.118142    0.250326     1.34485  0.000156049
2190    0.117748    0.249991     1.96585  6.94335e-05
2200    0.116753    0.249146     2.48973  4.95419e-05
2210    0.116757    0.249149     2.37287  0.000134254
2220    0.114068    0.246863     2.12067  0.000151642
2230    0.113724    0.246571     1.86795  0.000168002
2240    0.110708    0.244007     2.31464  0.000197031
2250    0.109784    0.243221     2.06225  0.00012421
2260    0.108224    0.241895     2.17869  7.97857e-05
2270    0.108188    0.241864     2.08123  9.88666e-05
2280    0.106246    0.240214     2.89647  0.000136587
2290    0.105456    0.239542     1.63475  0.000108065
2300    0.104085    0.238376     2.08102  0.000185132
2310    0.101753    0.236394     2.41119  0.000131855
2320    0.101448    0.236135     2.10051  0.000120711
2330   0.0993393    0.234342     1.67362  0.000133991
2340    0.098768    0.233857     1.92548  7.47014e-05
2350   0.0978452    0.233072     2.00303  0.000163884
2360   0.0954903     0.23107     2.08079  0.00010139
2370   0.0958174    0.231348      2.1581  0.000107689
2380   0.0933366    0.229239     3.22578  0.00016784
2390   0.0924606    0.228495     2.54633  7.74413e-05
2400   0.0917877    0.227923     3.18636  0.000104108
2410   0.0903785    0.226725     2.97301  8.52276e-05
2420   0.0900832    0.226473     2.91465  1.12131e-07
2430   0.0903762    0.226723     3.36094  5.76515e-05
2440   0.0889302    0.225493     3.24454  0.000158075
2450   0.0872147    0.224035     3.57458  0.000108213
2460   0.0867659    0.223653     3.96243  0.000113042
2470   0.0849539    0.222113     3.49738  8.80487e-05
2480   0.0850049    0.222156     3.59388  8.29995e-07
2490   0.0849373    0.222099     3.88446  8.99978e-05
2500    0.083205    0.220626      3.5355  0.000100543
2510   0.0829264    0.220389     3.84547  7.11117e-05
2520   0.0817827    0.219417     3.45766  7.86997e-05
2530   0.0813524    0.219051     3.67086  6.85006e-05
2540   0.0804127    0.218253     3.39915  7.91356e-05
2550   0.0797697    0.217706     4.19434  6.43756e-05
2560   0.0791252    0.217158     3.63163  0.000133552
2570   0.0770987    0.215435     4.67971  0.00013083
2580   0.0765086    0.214934     3.94172  0.000131272
2590   0.0744733    0.213203      4.2524  0.000123984
2600   0.0740289    0.212826     3.88332  5.65656e-05
2610   0.0733419    0.212242     3.43684  4.76465e-05
2620    0.073076    0.212016     3.12626  2.51088e-05
2630   0.0728398    0.211815     2.69897  6.60658e-05
2640   0.0717547    0.210892     3.55319  0.000178424
2650   0.0692713    0.208781     3.10692  0.000137814
2660   0.0689984    0.208549     2.83515  4.25298e-05
2670   0.0684207    0.208058     2.54403  4.41492e-05
2680   0.0681154    0.207799     2.87362  1.37933e-05
2690   0.0681448    0.207824     3.06736  4.13362e-05
2700   0.0672887    0.207096     3.31974  5.05619e-05
2710   0.0671336    0.206964     2.77616  9.40822e-06
2720   0.0671005    0.206936     3.26134  3.70387e-05
2730   0.0663928    0.206334     2.83403   8.009e-05
2740   0.0654987    0.205574     2.44608  6.64614e-05
2750   0.0650636    0.205204      2.6207  2.20262e-05
2760   0.0650582      0.2052     3.35783  3.59897e-05
2770   0.0643438    0.204592     3.62943  8.69893e-05
2780   0.0633184    0.203721     2.98871  9.4948e-05
2790   0.0624448    0.202978     3.06661  4.41264e-05
2800   0.0624359     0.20297      2.8532  4.89555e-05
2810   0.0614657    0.202146     2.32898  7.85192e-05
2820   0.0608655    0.201635     3.10506  8.03273e-05
2830   0.0598592     0.20078      2.4064  8.36358e-05
2840   0.0591928    0.200213      2.0573  3.24393e-05
2850   0.0592104    0.200228     2.28965  6.38101e-05
2860   0.0579166    0.199128      2.0956  6.70232e-05
2870   0.0578699    0.199089     2.42534  5.32072e-05
2880   0.0568524    0.198224     2.42574  6.42579e-05
2890   0.0565848    0.197996     2.36703  5.97874e-05
2900   0.0556567    0.197207     2.59978  6.14868e-05
2910    0.055355    0.196951     2.23118  7.74421e-05
2920   0.0541079    0.195891     1.64884  0.000101246
2930   0.0533301    0.195229     2.17257  7.7883e-05
2940   0.0525502    0.194566     1.92017  0.000103399
2950   0.0512621    0.193471     1.82328  6.72422e-05
2960   0.0512053    0.193423     1.60942  5.48339e-05
2970   0.0501654    0.192539     1.27949  3.26917e-05
2980   0.0505515    0.192867     1.49247  2.01648e-05
2990   0.0497622    0.192196       1.182  0.000107716
3000   0.0483972    0.191036     1.47309  0.000157426
3010   0.0466136     0.18952     1.33721  0.000124308
3020    0.045911    0.188922     2.07495  3.35839e-05
3030    0.045942    0.188949      1.9773  9.29918e-05
3040   0.0440512    0.187341     2.17183  0.000118781
3050   0.0435663    0.186929     2.13267  4.85584e-05
3060     0.04308    0.186516     2.01612  0.000146816
3070     0.04063    0.184433     2.81209  9.71548e-05
3080   0.0411369    0.184864     2.65672  -1.52674e-05
3090   0.0409354    0.184693     2.01652  8.8031e-05
3100   0.0393763    0.183367     1.51192  0.000107599
3110   0.0387834    0.182863     1.45303  9.17841e-05
3120   0.0375406    0.181807     1.62798  0.000100111
3130   0.0367812    0.181161     1.89951  0.000108569
3140   0.0353693    0.179961     1.43393  6.97857e-05
3150   0.0353854    0.179975     1.31698  0.000136903
3160   0.0326312    0.177633     1.00678  0.000190961
3170   0.0315662    0.176728     1.02619  4.78093e-05
3180    0.031675     0.17682    0.482194  5.29442e-05
3190   0.0305073    0.175828     1.23918  8.74413e-05
3200   0.0299262    0.175334    0.986961  5.81975e-05
3210   0.0293434    0.174838     1.12265  3.69835e-05
3220   0.0291865    0.174705    0.482308  6.34666e-05
3230   0.0280741    0.173759     0.52097  9.49234e-05
3240    0.027288    0.173091    0.948128  6.05472e-05
3250   0.0268631     0.17273    0.617692  0.000110359
3260   0.0250809    0.171215    0.831346  0.000118874
3270   0.0244856    0.170709    0.404283  4.63351e-05
3280   0.0241542    0.170427    0.830911  3.98442e-05
3290   0.0236887    0.170031    0.112963  6.98987e-05
3300   0.0227562    0.169238    0.927973  5.84087e-05
3310   0.0225206    0.169038    0.403772  0.000107034
3320   0.0206155    0.167419   0.0352791  5.20809e-05
3330    0.021479    0.168153    0.286914  2.73323e-05
3340   0.0200689    0.166954    0.209685  7.75271e-05
3350   0.0199284    0.166834    0.713958  4.59643e-05
3360   0.0191496    0.166172    0.170643  9.81784e-05
3370   0.0179648    0.165165   -0.237269  0.000100128
3380    0.017147     0.16447    0.733374  6.84114e-05
3390   0.0165966    0.164002    0.830115  7.20188e-05
3400   0.0157067    0.163245    0.170245  0.000109432
3410    0.014408    0.162141    0.558419  0.000123281
3420    0.013241    0.161149     0.57812  0.000115186
3430   0.0121043    0.160183    0.344935  8.32564e-05
3440   0.0115759    0.159734    0.306405  3.2491e-05
3450   0.0114544    0.159631    0.150734  8.71687e-05
3460  0.00983253    0.158252    0.248005  0.000116341
3470  0.00912762    0.157653     0.22857  2.95768e-05
3480  0.00924099    0.157749    0.655292  3.3157e-05
3490  0.00846448    0.157089    0.383502  0.00013608
3500  0.00651939    0.155435    0.558211  0.000126105
3510  0.00594238    0.154945    0.363896  1.65102e-05
3520  0.00618918    0.155155    0.305363  2.35128e-05
3530  0.00547212    0.154545    0.033592  4.42158e-05
3540  0.00530487    0.154403    0.557509  4.43973e-05
3550  0.00458418     0.15379    0.440879  2.71851e-05
3560  0.00476116    0.153941    0.382517  9.32152e-05
3570  0.00271987    0.152205    0.828958  0.000114165
3580  0.00247786       0.152     0.44086  5.03245e-05
3590  0.00171338     0.15135    0.304681  8.87586e-05
3600  0.000702686    0.150491     0.24666  0.000104712
3610  -0.000380861    0.149569    0.188316  0.00010154
3620  -0.00132812    0.148764    0.285151  9.66254e-05
3630  -0.00231337    0.147927    0.789766  6.71283e-05
3640  -0.00267069    0.147623    0.382081  9.54738e-05
3650  -0.00422284    0.146303    0.459632  0.000107992
3660  -0.00483052    0.145787   0.0908935  8.5514e-05
3670  -0.00593312    0.144849    0.323983  9.10329e-05
3680  -0.00665118    0.144239    0.556808  3.4824e-05
3690  -0.0066296    0.144257    0.750592  -2.16039e-06
3700  -0.00660797    0.144276     0.65334  5.09985e-05
3710  -0.00764958     0.14339    0.323718  6.70468e-05
