Time   C(t)   
ps   
0           1           1  6.93753e-10   0.0237428
10    0.766437    0.817229   -0.423145   0.0136769
20    0.726461    0.785947   -0.207923  0.00361102
30    0.694217    0.760714    -2.93832  0.00280146
40    0.670432    0.742102    -2.76641  0.00232376
50    0.647742    0.724346    -2.20365  0.00214348
60    0.627563    0.708555    -1.94464  0.00194096
70    0.608922    0.693969    -2.16164  0.00163696
80    0.594823    0.682936    -1.85911   0.0014495
90    0.579932    0.671283    -1.38374  0.00149059
100    0.565012    0.659607    -2.38076  0.00134598
110    0.553013    0.650218   -0.301451  0.00119283
120    0.541155    0.640939    -1.68928  0.00119249
130    0.529163    0.631554   -0.779149  0.00119768
140    0.517201    0.622194    -1.90696   0.0012056
150    0.505051    0.612686     -2.0369  0.00124376
160    0.492326    0.602728    -2.68676  0.00101519
170    0.484747    0.596798    -3.55459  0.000921136
180    0.473903    0.588312    -3.25143  0.000892539
190    0.466896    0.582829    -3.16518  0.000698639
200    0.459931    0.577378    -1.99613  0.000777422
210    0.451348    0.570662    -3.34039  0.000792766
220    0.444075     0.56497    -2.77707  0.000664333
230    0.438061    0.560264    -2.12743  0.000679612
240    0.430483    0.554334    -2.56147  0.000797434
250    0.422113    0.547784    -3.34161  0.000754586
260    0.415391    0.542524    -2.47556  0.000714563
270    0.407821    0.536601    -3.51576  0.000832842
280    0.398735     0.52949    -2.43203  0.000684065
290     0.39414    0.525895    -2.90956  0.000685732
300     0.38502    0.518758    -1.99947  0.000776203
310    0.378616    0.513746    -1.78395  0.000574005
320     0.37354    0.509774    -2.47823  0.00067874
330    0.365041    0.503124    -3.64783  0.000761142
340    0.358317    0.497862    -2.91096  0.000563852
350    0.353764    0.494299    -3.43129  0.000517464
360    0.347968    0.489763    -3.64766  0.000420204
370     0.34536    0.487723    -3.38874  0.000418405
380      0.3396    0.483215    -3.08532  0.000458498
390     0.33619    0.480547    -3.47592  0.000453974
400     0.33052     0.47611    -2.95601  0.000435053
410    0.327489    0.473738    -3.21603  0.000320357
420    0.324113    0.471096    -1.87367  0.000535765
430    0.316774    0.465353     -1.9161  0.000548005
440    0.313153    0.462519    -2.39375  0.000314321
450    0.310487    0.460433    -1.61361  0.000425571
460    0.304641    0.455859    -2.61156  0.000539805
470    0.299691    0.451985    -1.57063  0.000410329
480    0.296435    0.449437    -1.74432  0.00033735
490    0.292944    0.446705    -1.39809  0.000340877
500    0.289617    0.444102    -2.09126  0.000438489
510    0.284174    0.439843    -1.74508  0.00036231
520    0.282371    0.438432    -2.56943  0.000249036
530    0.279194    0.435945    -1.18202  0.00036381
540    0.275095    0.432738   -0.748741  0.000318769
550    0.272818    0.430956    -1.35609  0.000267971
560    0.269735    0.428544   -0.229549  0.000317244
570    0.266474    0.425991  -0.0557367  0.000297822
580    0.263779    0.423883    -1.09611  0.000105941
590    0.264355    0.424333   -0.923399  0.000195529
600    0.259868    0.420823     -1.4439  0.000400141
610    0.256352    0.418071    -2.05019  0.00027131
620    0.254442    0.416576   -0.750222  0.000191171
630    0.252528    0.415079    -1.27035  0.000197361
640    0.250495    0.413487   -0.577553  0.00031056
650    0.246317    0.410218   -0.230818  0.000366121
660    0.243173    0.407757    -0.44676  0.000236529
670    0.241587    0.406516   -0.144187  0.000173305
680    0.239707    0.405045    0.289094  0.000243386
690    0.236719    0.402707   -0.967476  0.000162409
700    0.236458    0.402503    -0.75183  0.000241499
710    0.231889    0.398928   -0.100703  0.00025344
720     0.23139    0.398537   -0.491472  0.00019586
730    0.227972    0.395862   -0.924669  0.000385959
740     0.22367    0.392496   -0.101041  0.000281502
750    0.222342    0.391457   -0.447522  0.00010374
760    0.221596    0.390873    0.201701  0.000186042
770    0.218621    0.388545   -0.144695  0.000288974
780    0.215816     0.38635   0.0286509  0.000116368
790    0.216294    0.386724   -0.578738  0.000102108
800    0.213774    0.384752  -0.0589104  0.000202211
810    0.212249    0.383559   -0.188984  0.000158528
820    0.210603    0.382271   -0.232723  0.000123496
830    0.209779    0.381626   -0.752973  0.000114946
840    0.208304    0.380472    0.156524  0.00022745
850     0.20523    0.378066     0.54687  0.000399458
860    0.200315     0.37422   -0.233315  0.000266948
870    0.199891    0.373888  -0.0171187  0.000107668
880    0.198162    0.372535    0.459901  0.000288907
890    0.194113    0.369367    0.200262  0.000232953
900    0.193503    0.368889    0.633205  7.89627e-05
910    0.192534    0.368131   -0.320157  0.000105924
920    0.191384    0.367231    0.633035  0.000124039
930    0.190053     0.36619    0.286216  0.000163091
940    0.188123    0.364679    0.936074  9.17032e-05
950    0.188219    0.364755     1.41309  5.31547e-05
960    0.187059    0.363847     1.15261  0.000146023
970    0.185299    0.362469      1.7589  0.000197275
980    0.183114     0.36076     1.02199  0.000257723
990    0.180144    0.358436     1.15236  0.000309318
1000    0.176928    0.355919     1.28268  0.000195699
1010     0.17623    0.355373   -0.147784  0.000154111
1020    0.173845    0.353507    0.241589    0.000287
1030     0.17049    0.350881   -0.018092  0.000188006
1040    0.170085    0.350564     0.15445  0.00021276
1050    0.166235    0.347551   -0.321723  0.000213034
1060    0.165825     0.34723    0.847835   0.0001259
1070    0.163717    0.345581    0.544839  0.00018975
1080     0.16203     0.34426    0.457996  0.000332826
1090    0.157061    0.340372    0.675124  0.000418468
1100     0.15366    0.337711   -0.148123  0.000157919
1110    0.153902      0.3379    0.587646  6.21006e-06
1120    0.153536    0.337614    0.414258  0.000122028
1130    0.151462    0.335991    0.674023  0.000198518
1140    0.149566    0.334507      1.3243  0.000189815
1150    0.147665     0.33302    0.197512  0.000126014
1160    0.147045    0.332535    0.587012  0.000209048
1170    0.143484    0.329748     1.23742  0.000194015
1180    0.143165    0.329498    0.976808  0.000203858
1190    0.139407    0.326558    0.803631  0.00016725
1200     0.13982    0.326881     2.10318  0.000124796
1210    0.136911    0.324604    0.326273  0.000248091
1220    0.134858    0.322998    0.672796  0.000224032
1230    0.132431    0.321098    0.152672  0.000289347
1240    0.129071    0.318469   0.0226837  0.000237428
1250    0.127682    0.317382   -0.541009  8.02934e-05
1260    0.127465    0.317213   -0.670998  8.3635e-05
1270    0.126009    0.316073    0.541919  0.000164372
1280    0.124178     0.31464   -0.411105  0.000142999
1290    0.123149    0.313835   -0.497482  0.000236626
1300    0.119445    0.310937    -1.32047  0.000299254
1310    0.117164    0.309152    -0.58369  0.000153612
1320    0.116373    0.308533     -1.1039  2.61698e-05
1330    0.116641    0.308742    -1.14802  2.31612e-05
1340     0.11591     0.30817   -0.714186  4.19233e-05
1350    0.115802    0.308086   -0.454378  9.83834e-05
1360    0.113942     0.30663   0.0229377  0.000161181
1370    0.112579    0.305564   -0.150704  -2.34924e-05
1380    0.114412    0.306998   -0.195502  -1.38655e-06
1390    0.112607    0.305585   -0.584621  9.27299e-05
1400    0.112558    0.305547   -0.671844  0.000115089
1410    0.110305    0.303784    0.368445  0.000121531
1420    0.110127    0.303645    0.281222  6.51434e-05
1430    0.109002    0.302764  -0.0654703  0.000191585
1440    0.106295    0.300646    0.194845  0.000141333
1450    0.106175    0.300552    0.671442  -0.000105136
1460    0.108398    0.302292    0.411042  3.42283e-05
1470    0.105491    0.300017    0.627872  7.84349e-05
1480    0.106829    0.301064    0.410915  -5.77606e-05
1490    0.106646    0.300921  -0.0656823  5.6386e-06
1500    0.106717    0.300976   -0.109717  4.07044e-05
1510    0.105832    0.300284    0.887892  0.000142782
1520    0.103861    0.298741     1.36402  7.92023e-05
1530    0.104248    0.299044    0.497079  -1.956e-05
1540    0.104252    0.299048    0.367599  3.79704e-05
1550    0.103488     0.29845   -0.630137  0.000124532
1560    0.101761    0.297099      1.5369  0.000166477
1570    0.100159    0.295844     2.66353  0.000134754
1580   0.0990663     0.29499     1.79684  0.000202628
1590   0.0961063    0.292673     1.66778  1.6287e-05
1600   0.0987406    0.294735     1.27646  -8.97042e-05
1610   0.0979003    0.294077     1.06018  0.000122851
1620   0.0962836    0.292812     2.18668  5.84863e-05
1630   0.0967306    0.293162      1.9698  -7.06352e-05
1640   0.0976963    0.293917    0.930022  3.60943e-05
1650   0.0960087    0.292597     1.19025  -4.82816e-05
1660   0.0986619    0.294673     1.70949  -6.7611e-05
1670    0.097361    0.293655     1.49287  8.14989e-05
1680   0.0970319    0.293398     1.23327  -3.86521e-05
1690    0.098134     0.29426   0.0198482  -8.42713e-05
1700   0.0987174    0.294716    0.712556  -6.21527e-06
1710   0.0982583    0.294357   -0.241018  0.000108007
1720   0.0965572    0.293026    0.885903   9.511e-05
1730   0.0963561    0.292869     1.66592  5.94214e-05
1740   0.0953688    0.292096    0.625756  0.000111974
1750   0.0941166    0.291116    0.236002  0.00012207
1760   0.0929274    0.290186  -0.0239751  8.95061e-05
1770   0.0923265    0.289715    0.755998  0.000122657
1780   0.0904743    0.288266    0.712853  6.68913e-05
1790   0.0909887    0.288668    0.885776  -4.16264e-05
1800   0.0913068    0.288917    0.625672  -5.42514e-06
1810   0.0910972    0.288753     1.10265  -4.84377e-05
1820   0.0922755    0.289676    0.279148  -4.18548e-05
1830   0.0919343    0.289408    0.106056  5.07362e-05
1840   0.0912608    0.288881     0.49581  3.75722e-05
1850   0.0911828     0.28882     0.88531  7.80523e-06
1860   0.0911047    0.288759   -0.414575  6.76896e-05
1870    0.089829    0.287761    0.451945  0.000127724
1880   0.0885502     0.28676    0.062148  0.000128034
1890   0.0872684    0.285757    0.192348  7.16045e-05
1900   0.0871181     0.28564     0.53904  2.17136e-05
1910   0.0868341    0.285417    0.582229  -1.50606e-05
1920   0.0874194    0.285875    0.148483  -0.000105511
1930   0.0889443    0.287069    0.537983  6.53889e-05
1940   0.0861116    0.284852  -0.0246523  0.000236594
1950   0.0842124    0.283366   -0.328241  0.000176706
1960   0.0825775    0.282086   -0.198041  0.000103074
1970    0.082151    0.281753   -0.804626  5.28287e-05
1980   0.0815209     0.28126   -0.717911  -2.13198e-05
1990   0.0825773    0.282086   -0.284925  -7.75009e-06
2000   0.0816759    0.281381   -0.371302  8.6882e-05
2010   0.0808397    0.280727   -0.285053  5.32154e-05
2020   0.0806116    0.280548   -0.371472  0.000175514
2030   0.0773294     0.27798    0.322295  0.000131601
2040   0.0779796    0.278488    0.408502  -6.16912e-05
2050   0.0785633    0.278945    0.451775  -2.09711e-05
2060    0.078399    0.278817    0.798425  5.73572e-05
2070   0.0774161    0.278048    0.148313  0.00011889
2080   0.0760212    0.276956   -0.761522  3.02792e-05
2090   0.0768105    0.277574   -0.198633  -8.24507e-05
2100   0.0776702    0.278246   -0.329511  8.87062e-05
2110   0.0750364    0.276185   -0.155529  3.03742e-05
2120   0.0770627    0.277771   -0.849126  2.3875e-05
2130   0.0745589    0.275812    0.191713  0.000171578
2140   0.0736312    0.275086    -1.06536  4.8114e-05
2150   0.0735966    0.275059    -1.02256  1.03418e-05
2160   0.0734243    0.274924   -0.198718  6.90699e-05
2170   0.0722152    0.273978   -0.198929  3.46109e-05
2180   0.0727321    0.274382    0.233674  0.000145604
2190   0.0693031    0.271699   -0.761945  0.000187322
2200   0.0689857     0.27145    0.407402  0.000104688
2210   0.0672094     0.27006   -0.112171  7.01096e-05
2220   0.0675835    0.270353    0.190994  4.9546e-05
2230   0.0662185    0.269285   0.0605399  6.69848e-05
2240   0.0662438    0.269305    0.580113  0.000147511
2250   0.0632682    0.266976    0.797156  9.17949e-05
2260   0.0644079    0.267868  -0.0265567  1.53344e-05
2270   0.0629615    0.266736   -0.243091  0.000120288
2280   0.0620021    0.265986   -0.719984  4.69659e-05
2290   0.0620222    0.266001   -0.417115  2.96012e-05
2300   0.0614101    0.265522   -0.373461  0.000198427
2310   0.0580537    0.262896   -0.850015  0.000156515
2320   0.0582798    0.263073   -0.200453  8.6646e-05
2330   0.0563208     0.26154   -0.373291  6.55396e-05
2340    0.056969    0.262047    0.102755  -3.66162e-05
2350   0.0570531    0.262113   0.0164205  -2.96678e-05
2360   0.0575624    0.262511   -0.850903  -4.91682e-06
2370   0.0571514     0.26219   -0.287296  0.000112121
2380   0.0553199    0.260757   -0.720407  0.000190495
2390   0.0533415    0.259208    -1.32703  3.79834e-05
2400   0.0545603    0.260162    -1.19726  0.000105991
2410   0.0512217     0.25755    -1.45757  0.000280777
2420   0.0489447    0.255768    -1.32703  0.000224431
2430   0.0467331    0.254037    -1.41388  0.000174958
2440   0.0454456    0.253029    -1.15424  0.000111012
2450   0.0445128      0.2523    -1.45791  0.000100566
2460   0.0434343    0.251456   -0.764527  5.05552e-05
2470   0.0435017    0.251508    -1.28478  0.000194593
2480   0.0395424     0.24841    -1.93451  0.000166035
2490    0.040181     0.24891   -0.938381  7.66611e-05
2500   0.0380092     0.24721   -0.288184  0.000170531
2510   0.0367704    0.246241   -0.721973  0.000156596
2520   0.0348772    0.244759   -0.938212  0.000113535
2530   0.0344997    0.244464    -1.15517  8.49398e-05
2540   0.0331784     0.24343   -0.505396  0.000154071
2550   0.0314183    0.242053   -0.548415  7.81206e-05
2560    0.031616    0.242207   -0.722312  5.29924e-05
2570   0.0303585    0.241223   -0.419062  0.000235262
2580   0.0269108    0.238525   0.0148546  0.000177361
2590   0.0268112    0.238448    0.274451  4.65002e-05
2600   0.0259808    0.237798    0.967413  8.68325e-05
2610   0.0250746    0.237089    0.230839  -5.21614e-05
2620    0.027024    0.238614    0.187312  8.73047e-05
2630   0.0233285    0.235722  -0.0720301  0.000190035
2640   0.0232233     0.23564    0.231051  5.0997e-05
2650   0.0223086    0.234924   -0.765584  7.68629e-05
2660   0.0216861    0.234437   -0.896039  9.9229e-05
2670    0.020324    0.233371   -0.765542  5.51215e-05
2680   0.0205836    0.233574   -0.679292  3.31829e-05
2690   0.0196603    0.232852   -0.592619  0.000118394
2700   0.0182158    0.231721   -0.895827  8.15882e-05
2710   0.0180286    0.231575   -0.159168  7.07589e-05
2720   0.0168006    0.230614    0.404059  -3.50755e-06
2730   0.0180987     0.23163   -0.852892  4.13463e-05
2740   0.0159737    0.229967    -1.02586  -4.45569e-05
2750   0.0189898    0.232327   -0.766939  -0.000104087
2760   0.0180554    0.231596   -0.723327  8.61003e-05
2770   0.0172678    0.230979    -1.02649  4.51538e-05
2780   0.0171523    0.230889   -0.636654  0.000131584
2790   0.0146362     0.22892   -0.116446  0.000128027
2800   0.0145918    0.228885   -0.116784  4.20528e-05
2810   0.0137951    0.228262   0.0134157  1.19832e-05
2820   0.0143521    0.228698   0.0569851  8.34526e-06
2830   0.0136282    0.228131     0.40427  -2.94849e-05
2840   0.0149418    0.229159   -0.462546  -0.000116411
2850   0.0159564    0.229953   -0.289411  6.51227e-07
2860   0.0149288    0.229149   -0.766262  4.60165e-05
2870   0.0150361    0.229233   -0.333108  8.42018e-05
2880   0.0132447    0.227831   -0.679081  6.14863e-05
2890   0.0138064    0.228271   -0.592746  -8.29021e-05
2900   0.0149028    0.229129  -0.0294343  2.75065e-05
2910   0.0132562     0.22784    0.144082  9.99582e-05
2920   0.0129036    0.227564    0.144462  3.53062e-05
2930   0.0125501    0.227288    0.620932  2.3917e-05
2940   0.0124253     0.22719  -0.0290955  -3.7357e-05
2950   0.0132973    0.227872   -0.376127  -8.73304e-05
2960   0.0141719    0.228557   -0.419654  -7.60413e-05
2970   0.0148181    0.229062   -0.939566  -0.000103235
2980   0.0162366    0.230173   -0.766643  -0.000118904
2990   0.0171962    0.230923   -0.246562  -0.000146324
3000   0.0191631    0.232463    -1.24337  -4.60878e-05
3010   0.0181179    0.231645    -1.37327  3.87985e-05
3020   0.0183871    0.231855   -0.939608  7.96439e-06
3030   0.0179586     0.23152   -0.549346  3.51395e-05
3040   0.0176843    0.231305   -0.723031  2.31341e-07
3050    0.017954    0.231516    -1.45969  -7.52639e-06
3060   0.0178348    0.231423     -1.4162  4.1293e-06
3070   0.0178714    0.231452   -0.593762  7.83958e-05
3080   0.0162669    0.230196    -1.24324  7.45931e-05
3090   0.0163796    0.230284   -0.853316  3.18252e-05
3100   0.0156304    0.229698   -0.853316  -4.66391e-05
3110   0.0173123    0.231014    -1.63337  2.02238e-05
3120   0.0152259    0.229382    -1.41654  4.75598e-05
3130   0.0163611     0.23027     -1.4168  -4.66657e-05
3140   0.0161593    0.230112    -1.76349  -1.13758e-05
3150   0.0165887    0.230448    -1.98045  2.81672e-05
3160   0.0155959    0.229671    -2.71698  9.94146e-05
3170   0.0146004    0.228892    -2.50044  4.02343e-05
3180   0.0147912    0.229041    -1.85037  -3.24575e-06
3190   0.0146653    0.228943    -1.89399   2.853e-05
3200   0.0142206    0.228595    -1.63354  -4.30868e-05
3210    0.015527    0.229617    -1.33084  -3.201e-06
3220   0.0142846    0.228645   -0.853485  0.000220277
3230   0.0111215     0.22617    -1.19992  0.000116782
3240    0.011949    0.226817   -0.809874  -6.28498e-05
3250   0.0123785    0.227153    -1.76349  -4.30097e-05
3260   0.0128092     0.22749    -2.28306  2.11607e-05
3270   0.0119553    0.226822     -1.8497  -5.53329e-05
3280   0.0139159    0.228356    -1.41654  8.57547e-05
3290   0.0102402     0.22548    -1.41599  0.00020668
3300  0.00978225    0.225122    -2.19635  8.62765e-05
3310  0.00851463     0.22413    -2.06623  0.000143143
3320  0.00691939    0.222881    -1.67593  2.19233e-05
3330  0.00807616    0.223787       -1.33  -6.23062e-06
3340    0.007044    0.222979    -1.54653  0.000119645
3350  0.00568326    0.221914    -1.67652  7.11208e-05
3360  0.00562158    0.221866     -1.3731  -7.94784e-05
3370  0.00727283    0.223158   -0.723539  -1.4235e-05
3380  0.00590628    0.222089    -1.41688  0.000169585
3390  0.00388113    0.220504     -0.8534  3.89366e-05
3400  0.00512755    0.221479    -1.59027  -2.22384e-05
3410   0.0043259    0.220852   -0.983262  7.61698e-05
3420  0.00360416    0.220287    -1.67661  8.0519e-05
3430  0.00271551    0.219592   -0.896631  0.000101358
3440    0.001577    0.218701     -1.1561  -4.28488e-05
3450  0.00357249    0.220262    -2.06691  -5.51348e-05
3460   0.0026797    0.219564    -1.37374  9.76932e-05
3470  0.00161863    0.218733    -1.24341  6.47968e-05
3480  0.00138376     0.21855    -2.11001  0.000102443
3490  -0.00043024     0.21713    -1.24328  1.94354e-05
3500  0.000995051    0.218245    -1.85033  -6.77503e-05
3510  0.000924766     0.21819    -1.59014  -3.05199e-05
3520  0.00160545    0.218723    -1.46024  4.04904e-05
3530  0.000114958    0.217557    -1.80655  2.78959e-05
3540  0.00104753    0.218287    -1.33012  -4.31049e-05
3550  0.000977056    0.218231    -1.72034  7.06656e-06
3560   0.0009062    0.218176   -0.680393  4.91479e-05
3570  -5.90309e-06    0.217462    -1.20026  9.1355e-05
3580  -0.0009209    0.216746   -0.853697  -3.06932e-05
3590  0.000607961    0.217943   -0.724174  -1.79263e-05
3600  -0.000562374    0.217027   -0.594101  0.000231474
3610  -0.00402152     0.21432    -1.28702  0.000138783
3620  -0.00333804    0.214855    -1.11414  -0.000140623
3630  -0.00120907    0.216521    -1.15754  -0.0001027
3640  -0.00128404    0.216462    -1.80769  -7.76446e-05
3650  0.000343826    0.217736    -1.72191  3.31477e-05
3660  -0.00194699    0.215943    -2.11141  3.03533e-06
3670  0.00028312    0.217688     -1.8082  -0.000103562
3680  0.00012425    0.217564    -2.02486  -3.9803e-05
3690  0.00107918    0.218311     -2.4584  1.59583e-05
3700  -0.000194916    0.217314    -1.41845  8.46226e-05
