Time   C(t)   
ps   
0           1           1  8.10753e-10    0.023848
10    0.768289    0.845932     1.11208   0.0132023
20    0.735955    0.824432   0.0657047  0.00255655
30    0.717158    0.811934      1.1095  0.00186793
40    0.698596    0.799592    -0.73709  0.00170363
50    0.683086    0.789278    0.555395  0.00157078
60    0.667181    0.778703    0.310249  0.00158301
70    0.651425    0.768227     1.41851  0.00138115
80    0.639558    0.760336     3.20219  0.00137045
90    0.624016    0.750002     1.23249  0.00129542
100    0.613649    0.743109  -0.0617374  0.00104233
110     0.60317    0.736141    -0.61578  0.00105818
120    0.592486    0.729037  -0.0615566  0.000913757
130    0.584895    0.723989    0.183048  0.000773615
140    0.577013    0.718749   -0.925939  0.000935829
150    0.566178    0.711545  -0.00225449  0.00108916
160     0.55523    0.704265    0.858882  0.000893608
170    0.548306    0.699661     1.84277  0.000734538
180    0.540539    0.694497  -0.00405817  0.000740623
190    0.533494    0.689812   -0.188819  0.000719088
200    0.526158    0.684934    -1.54349  0.000942171
210     0.51465    0.677283    -2.46555  0.000906929
220    0.508019    0.672873    -2.03661  0.000714684
230    0.500356    0.667779    -1.85149  0.000702207
240    0.493975    0.663535    -2.28302  0.000569272
250    0.488971    0.660208    -1.23682  0.000598344
260    0.482008    0.655578    -1.66763  0.000553025
270     0.47791    0.652854    -2.59143  0.000521767
280    0.471573     0.64864    -2.83862  0.000694956
290    0.464011    0.643612    -1.85245  0.00065905
300    0.458392    0.639875    -1.97635  0.000427265
310    0.455466     0.63793    -2.77776  0.000353552
320    0.451321    0.635174    -2.59402  0.000527187
330    0.444922    0.630919    -1.60941  0.000654519
340     0.43823     0.62647    -2.53237  0.000501275
350    0.434897    0.624253    -4.13315  0.000418083
360    0.429869     0.62091     -5.1174  0.000456409
370    0.425769    0.618184    -4.37944  0.000363423
380      0.4226    0.616077    -3.76429  0.00036422
390    0.418484     0.61334    -4.74968  0.000308432
400    0.416431    0.611975    -2.59636  0.000309195
410      0.4123    0.609229     -3.7661  0.000545666
420    0.405518    0.604719    -4.38064  0.000475825
430    0.402784    0.602901    -3.45822  0.000429732
440    0.396923    0.599004    -2.53568  0.000406782
450    0.394648    0.597491    -1.85906  0.000332026
460    0.390283    0.594589   -0.751759  0.000422749
470    0.386193    0.591869    0.603215  0.000366667
480     0.38295    0.589713   -0.997866  0.000367475
490    0.378844    0.586983    -1.49068  0.000273032
500    0.377489    0.586082    -2.16778  0.000116557
510    0.376513    0.585433    -1.67641  0.000364786
520    0.370193    0.581231    -2.41527  0.00051803
530    0.366152    0.578544    -3.27647  0.000256434
540    0.365065    0.577821    -1.73865  0.000276259
550    0.360627     0.57487    -1.73865  0.000540033
560    0.354264    0.570639    -2.90682  0.000512315
570    0.350381    0.568057     -3.0303  0.000326359
580    0.347737    0.566299     -2.9073  0.000250275
590    0.345375    0.564729    -2.23093  0.000318168
600    0.341373    0.562068    -2.29324  0.000313945
610    0.339096    0.560554    -3.40132  0.000213496
620    0.337103    0.559229    -3.40132  0.00032974
630    0.332501    0.556169    -2.41551  0.000441393
640    0.328276    0.553359    -3.03204  0.000253804
650    0.327425    0.552794    -1.43246  0.000104509
660    0.326185    0.551969    -0.87842  0.000400248
670     0.31942    0.547471    -1.49309  0.000444447
680    0.317296    0.546059     -1.8009  0.000202891
690    0.315362    0.544773    -2.35603  0.000140138
700    0.314494    0.544195    -1.00153  0.000262155
710    0.310119    0.541287     -1.4324  0.000486609
720    0.304761    0.537724    -2.90983  0.000443712
730    0.301245    0.535386     -3.3404  0.00034225
740    0.297917    0.533173    -4.14157  0.00023548
750    0.296535    0.532255    -4.44986  0.000270347
760     0.29251    0.529578    -4.08046  0.000417738
770    0.288181    0.526699    -3.58729  0.000266615
780    0.287177    0.526032    -2.97238  0.000277182
790    0.282637    0.523013    -3.15744  0.000316916
800    0.280839    0.521818    -3.09663  0.000101319
810    0.280611    0.521666    -3.03505  8.0809e-06
820    0.280677     0.52171    -3.52768  0.000151069
830    0.277589    0.519657    -3.46694  0.000338759
840    0.273902    0.517205      -3.467  0.000378975
850     0.27001    0.514617    -3.52738  0.000256139
860    0.268779    0.513799    -4.69778  0.000128144
870    0.267447    0.512913    -5.06676  0.000158146
880    0.265616    0.511696    -4.32922  0.000153503
890    0.264377    0.510872    -5.92891  0.000168779
900    0.262241    0.509451    -4.51325  0.000154167
910    0.261294    0.508822    -4.82137  0.000159568
920     0.25905    0.507329    -5.86817  0.000239587
930    0.256502    0.505635    -5.86853  0.000145304
940    0.256143    0.505397      -4.515  0.000150733
950    0.253487    0.503631     -5.5618  0.000220925
960    0.251725    0.502459    -5.13069  0.000196461
970    0.249558    0.501018    -4.45383  0.000322176
980    0.245281    0.498175    -6.36093  0.00032275
990    0.243103    0.496726    -5.19167  0.00011264
1000    0.243029    0.496677    -4.26859  -3.28094e-05
1010    0.243759    0.497163    -4.33072  9.8028e-05
1020    0.241068    0.495373    -4.94629  0.000234128
1030    0.239077    0.494049     -6.3009  0.000350735
1040    0.234053    0.490709    -5.00721  0.000139221
1050    0.236292    0.492198    -4.45485  3.37482e-05
1060    0.233378     0.49026    -3.59324  0.000387885
1070    0.228534    0.487039    -5.00818  0.00028729
1080    0.227633     0.48644    -4.88554  0.000120725
1090     0.22612    0.485434    -5.37776  0.000253022
1100    0.222572    0.483075    -4.26919  0.000309409
1110    0.219932    0.481319    -3.10072  0.000142162
1120    0.219729    0.481185    -3.16177  0.000203779
1130    0.215856    0.478609    -4.02278  0.000255056
1140    0.214628    0.477793    -3.90021  0.000184277
1150    0.212171    0.476159    -2.66967  0.000189739
1160    0.210833    0.475269    -3.16249  0.000313098
1170    0.205909    0.471995    -4.63986  0.000287969
1180    0.205074     0.47144    -4.02417  0.000119529
1190    0.203518    0.470406    -3.10174  0.000124907
1200    0.202575    0.469779    -3.71707  0.000284638
1210    0.197825     0.46662    -3.34671  0.000238742
1220    0.197801    0.466604    -3.22456  4.36872e-05
1230    0.196952    0.466039    -3.84001  0.000121137
1240    0.195378    0.464993    -4.51674  0.000142056
1250     0.19411     0.46415     -3.0407  9.58435e-05
1260    0.193461    0.463719    -4.58025  0.000220365
1270    0.189703     0.46122    -2.97893  8.59089e-05
1280    0.191743    0.462576    -1.50271  8.12426e-05
1290    0.188078    0.460139    -2.48707  0.000257762
1300    0.186588    0.459148    -2.36384  6.60241e-05
1310    0.186758    0.459261     -2.3034  0.000160011
1320    0.183387     0.45702    -3.41022  0.000207098
1330    0.182616    0.456507    -3.53411  4.15295e-06
1340    0.183304    0.456965    -2.91921  4.23342e-06
1350    0.182531    0.456451     -2.4881  0.000134963
1360    0.180605     0.45517    -2.91921  0.000292362
1370    0.176684    0.452563    -3.22576  0.000277181
1380    0.175061    0.451484    -3.65681  0.000125703
1390     0.17417    0.450892    -4.88903  9.45166e-05
1400    0.173171    0.450227    -4.27304  0.000147349
1410    0.171223    0.448932    -4.51909  6.85982e-05
1420    0.171799    0.449315    -5.01238  0.00020605
1430    0.167102    0.446192     -4.8269  0.000243191
1440    0.166935    0.446081     -4.4587  6.42665e-05
1450    0.165817    0.445337    -3.53568  0.000313143
1460    0.160673    0.441917    -4.33474  0.000271247
1470    0.160392     0.44173    -4.39687  -9.02936e-06
1480    0.160853    0.442037    -3.28957  -1.96368e-05
1490    0.160784    0.441991    -5.07493  0.000129197
1500    0.158269    0.440319    -5.50592  0.000102735
1510     0.15873    0.440625    -4.39735  0.000135138
1520    0.155566    0.438522    -5.75239  0.000193943
1530    0.154851    0.438046    -3.53616  0.000205229
1540    0.151462    0.435793     -3.0437  0.000103923
1550    0.152772    0.436664    -3.47607  9.37439e-05
1560    0.149587    0.434546    -3.53676  0.00027065
1570    0.147359    0.433065    -2.92059  6.73346e-05
1580     0.14824     0.43365    -2.36745  5.1555e-05
1590    0.146328    0.432379    -2.79778  0.000142999
1600     0.14538    0.431749    -3.90622  -3.44068e-05
1610    0.147016    0.432837    -3.59883  -2.89403e-05
1620    0.145959    0.432134    -2.98314  0.000127469
1630    0.144467    0.431142    -3.66054  0.000111514
1640    0.143729    0.430651    -2.30622  0.000171367
1650     0.14104    0.428863     -4.5838  0.000269234
1660    0.138344     0.42707    -3.22967  0.000172196
1670    0.137596    0.426573    -2.49098  3.14645e-05
1680    0.137715    0.426652    -4.58386  9.14305e-05
1690    0.135767    0.425357    -3.78365  0.000124208
1700    0.135231       0.425    -3.29149  3.7349e-05
1710     0.13502     0.42486    -3.04569  5.38193e-05
1720    0.134154    0.424284    -2.86123  0.000119513
1730     0.13263    0.423271    -3.10745  8.69282e-05
1740    0.132416    0.423128    -3.53808  1.05061e-05
1750     0.13242    0.423131    -3.84632  -3.88242e-05
1760    0.133192    0.423645    -3.23165  8.19623e-05
1770    0.130781    0.422041    -2.36943  0.000114966
1780    0.130893    0.422116     -2.4312  0.000126413
1790    0.128252     0.42036    -1.69294  0.00015963
1800      0.1277    0.419993    -2.73907  -5.44563e-06
1810    0.128361    0.420433   -0.708326  0.000105146
1820    0.125597    0.418595    -2.86237  0.000143934
1830    0.125482    0.418518    -2.37003  7.79685e-05
1840    0.124038    0.417558   -0.954013  0.000150173
1850    0.122479    0.416521   -0.769312  0.000139429
1860    0.121249    0.415704   -0.523624  0.000111997
1870    0.120239    0.415032   -0.708266  0.000106717
1880    0.119115    0.414285    -1.20084  7.91024e-05
1890    0.118657     0.41398    -1.20084  0.000157472
1900    0.115966    0.412191    -1.38476  0.000157724
1910    0.115503    0.411883   -0.954493  7.43315e-05
1920    0.114479    0.411202    -1.13943  0.000180905
1930    0.111884    0.409477    -2.18617  0.000108355
1940    0.112312    0.409761    -2.43288  0.000136897
1950    0.109147    0.407656    -2.12465  0.000120137
1960    0.109909    0.408163    -1.20156  5.87448e-05
1970    0.107972    0.406875    -3.10944  0.000182731
1980    0.106255    0.405733    -3.04851  4.21252e-05
1990    0.107129    0.406315    -2.00237  -2.81706e-06
2000    0.106311    0.405771    -2.18707  0.000104566
2010    0.105038    0.404924    -3.35675  0.000184105
2020    0.102629    0.403323    -3.54061  0.00019583
2030    0.101121     0.40232    -2.98711  0.000145274
2040   0.0997233    0.401391    -2.74076  7.74153e-05
2050   0.0995729    0.401291    -3.35663  1.50666e-05
2060   0.0994219     0.40119    -2.98735  4.93098e-05
2070   0.0985867    0.400635    -3.29492  0.000146408
2080   0.0964938    0.399243    -3.97184  -1.3312e-05
2090    0.098853    0.400812    -2.49501  -0.000116055
2100   0.0988149    0.400787    -2.86405  8.97501e-05
2110    0.097058    0.399619    -2.80282  0.000175914
2120   0.0952966    0.398447     -2.2489  0.000153387
2130   0.0939902    0.397579     -2.2486  3.3031e-05
2140    0.094636    0.398008    -3.66516  4.47541e-05
2150   0.0930952    0.396984    -3.48022  0.000165811
2160   0.0913198    0.395803    -1.75651  9.69548e-05
2170   0.0911561    0.395694    -2.55762  0.000103075
2180   0.0892583    0.394432    -1.75675  0.000190044
2190   0.0873552    0.393167   -0.340788  0.00016736
2200   0.0859111    0.392207   -0.155907  7.49767e-05
2210   0.0858557     0.39217    0.274301  0.000208891
2220   0.0817332    0.389429   -0.648722  0.000203342
2230   0.0817888    0.389466    -1.38759  9.34608e-05
2240    0.079864    0.388186     -1.3254  0.000251061
2250   0.0767676    0.386127    -1.20216  2.9701e-05
2260     0.07927    0.387791  -0.0951005  -0.000110208
2270   0.0789718    0.387593    -1.01794  0.000100117
2280   0.0772677     0.38646   -0.894529  0.000188224
2290   0.0752073     0.38509    0.274902  0.000159346
2300   0.0740807    0.384341   -0.341028  6.57704e-05
2310   0.0738919    0.384215   -0.526089  -5.17216e-05
2320   0.0751152    0.385028    0.704809  -8.12314e-05
2330   0.0755165    0.385295    0.335467  7.78388e-05
2340   0.0735584    0.383993    -1.51172  0.00011926
2350   0.0731313    0.383709    0.149985  0.00014925
2360   0.0705734    0.382008   -0.957078  9.61706e-05
2370   0.0712079     0.38243   -0.957138  7.65324e-06
2380   0.0704203    0.381907   -0.649744  0.00019767
2390   0.0672545    0.379802    -1.01933  0.00022182
2400   0.0659839    0.378957    0.334506  0.000210614
2410   0.0630422    0.377001  -0.0343547  0.000139513
2420   0.0631937    0.377102  -0.0962421  4.45275e-05
2430   0.0621517    0.376409    -1.01969  2.70717e-06
2440   0.0631396    0.377066     1.01178  6.27384e-05
2450   0.0608969    0.375574    0.889029  0.00018858
2460   0.0593679    0.374558     1.93535  7.50687e-05
2470   0.0593955    0.374576    0.581094  -0.000147042
2480   0.0623088    0.376513    0.949294  0.000117595
2490   0.0570436    0.373012     1.25807  0.000141478
2500   0.0594792    0.374632    0.703607  -2.05841e-05
2510   0.0574553    0.373286     1.07343  0.000202677
2520   0.0554257    0.371937     1.13405  0.000100339
2530   0.0554485    0.371952    0.702946  0.000112857
2540   0.0531686    0.370436     2.18055  2.80647e-05
2550   0.0548872    0.371578    0.272138  -0.000190315
2560   0.0569749    0.372967     1.31809  -2.20966e-06
2570   0.0549314    0.371608     1.81139  0.000186368
2580   0.0532475    0.370488     2.30385  0.000125907
2590   0.0524133    0.369934     1.81157  -0.000124179
2600   0.0557311     0.37214     1.50292  -0.000167048
2610   0.0557542    0.372155     1.56462  -1.45737e-05
2620   0.0560225    0.372333     2.11836  -3.30085e-05
2630   0.0564144    0.372594    0.579712  3.4463e-05
2640   0.0553333    0.371875     2.36495  -8.23924e-05
2650   0.0580623     0.37369     1.99525  -3.30824e-05
2660   0.0559949    0.372315     1.25627  0.000120676
2670   0.0556487    0.372085     1.25681  -3.94359e-05
2680   0.0567837    0.372839     1.01028  -7.65523e-05
2690   0.0571798    0.373103     1.87208  -7.06224e-05
2700   0.0581961    0.373779     1.68641  3.63942e-06
2710    0.057107    0.373054     2.48675  0.000146314
2720   0.0552698    0.371833     3.41091  7.20546e-05
2730   0.0556659    0.372096     2.36399  3.91956e-06
2740   0.0551914    0.371781     2.17905  7.24556e-05
2750   0.0542168    0.371133     2.05552  3.51554e-05
2760   0.0544883    0.371313     2.73261  5.40946e-05
2770   0.0531349    0.370413     1.93282  0.000123009
2780   0.0520281    0.369677     2.11764  0.000148445
2790    0.050166    0.368439     1.87172  7.97434e-05
2800   0.0504333    0.368617     1.87106  -2.67738e-05
2810   0.0507015    0.368795     3.34782  0.000275352
2820   0.0449262    0.364955     2.54827  0.000225269
2830   0.0461961      0.3658     2.05497  5.41881e-06
2840   0.0448178    0.364883     2.11722  0.000258141
2850   0.0410333    0.362367     1.25591  0.000246028
2860   0.0398973    0.361611     1.13303  0.000120105
2870   0.0386312     0.36077     1.19396  0.000126788
2880   0.0373615    0.359925    0.824677  5.72029e-05
2890   0.0374871    0.360009     1.25494  6.38276e-05
2900    0.036085    0.359077     1.99279  0.000261551
2910   0.0322561    0.356531     2.67072  0.000204655
2920   0.0319919    0.356355     2.05564  5.20351e-05
2930   0.0312154    0.355839     1.99357  6.49526e-05
2940   0.0306928    0.355491     2.05467  0.000161325
2950   0.0279889    0.353693     2.05509  0.000148784
2960   0.0277172    0.353513     1.25446  5.93678e-05
2970   0.0268015    0.352904     2.17809  0.000117452
2980   0.0253681    0.351951    0.392846  -6.28145e-05
2990   0.0280578    0.353739    0.638653  1.88025e-06
3000   0.0253305    0.351926     1.43916  0.000169637
3010   0.0246651    0.351483     1.25494  -0.000101735
3020   0.0273652    0.353279     1.43856  8.63008e-05
3030   0.0229391    0.350336    0.762369  0.000248405
3040   0.0223971    0.349975     1.25404  0.000119316
3050   0.0205528    0.348749     1.00775  0.000113055
3060    0.020136    0.348472     1.99249  2.8681e-05
3070   0.0199791    0.348368     2.11542  4.83754e-05
3080   0.0191685    0.347829     3.28545  0.000140064
3090   0.0171779    0.346505     1.43862  -0.000108572
3100     0.02134    0.349272     1.86865  -5.59569e-05
3110    0.018297    0.347249     3.28467  0.000193042
3120   0.0174791    0.346705      2.8541  0.000121371
3130   0.0158696    0.345635      2.1144  0.000134853
3140    0.014782    0.344912     2.11488  8.91067e-05
3150   0.0140875     0.34445     3.16138  0.000247995
3160  0.00982214    0.341614     3.46997  0.000135945
3170   0.0113686    0.342642     3.46925  -9.52112e-05
3180   0.0117264     0.34288     3.53048  -2.92122e-05
3190   0.0119528    0.343031     3.59243  -2.93063e-05
3200   0.0123125     0.34327     4.33027  -3.60317e-05
3210   0.0126734     0.34351     4.02221  -2.28095e-05
3220   0.0127687    0.343573     4.76084  5.05604e-05
3230   0.0116622    0.342837      4.4529  0.000104119
3240   0.0106863    0.342189     3.89946  3.07585e-05
3250   0.0110471    0.342428     3.46817  -4.95296e-05
3260   0.0116769    0.342847     4.08344  -5.63693e-05
3270   0.0121744    0.343178      3.9599  -2.96469e-05
3280   0.0122698    0.343241      4.2676  -2.97567e-05
3290   0.0127696    0.343574     4.20595  -2.83043e-06
3300   0.0123264    0.343279       2.544   0.0001052
3310   0.0106656    0.342175     1.68257  0.000105421
3320    0.010218    0.341877     2.97523  8.55008e-05
3330  0.00895557    0.341038     2.66742  0.000133208
3340  0.00755384    0.340106     2.97481  0.00010641
3350  0.00682738    0.339623      3.5288  1.14675e-05
3360  0.00732449    0.339953     2.60523  0.000113868
3370  0.00455002    0.338108     2.66688  0.000113971
3380  0.00504506    0.338438     2.23577  -2.90643e-05
3390   0.0051313    0.338495     1.55819  0.000107806
3400  0.00288895    0.337004     3.34373  0.00032061
3410  -0.0012809    0.334231     2.35954  0.000266466
3420  -0.00244038     0.33346     3.09835  4.04533e-05
3430  -0.00208996    0.333693     1.43574  -7.53442e-06
3440  -0.00228969    0.333561     1.43538  5.45092e-05
3450  -0.00318015    0.332969     1.62026  0.00015139
3460  -0.00531749    0.331547     1.55891  0.000179446
3470  -0.00676906    0.330582     2.54412  -0.000104211
3480  -0.00323326    0.332933     2.54316  -0.000124979
3490  -0.00426948    0.332244     1.37307  0.000124643
3500  -0.00572612    0.331276     1.92759  0.000180721
3510  -0.0078839    0.329841     2.05071  0.00025797
3520  -0.0108855    0.327845     2.66646  0.000111974
3530  -0.0101234    0.328352     1.98894  -1.33522e-05
3540  -0.0106185    0.328023     3.09708   2.856e-05
3550  -0.0106946    0.327972     2.60445  -2.74641e-05
3560  -0.0100692    0.328388       1.681  -3.45257e-05
3570  -0.0100041    0.328431     1.74271  7.79708e-05
3580  -0.0116286    0.327351     1.68094  7.80873e-05
3590  -0.0115658    0.327393    0.634085  -9.8109e-05
3600  -0.00966644    0.328656     1.80328  -9.12065e-05
3610  -0.00974169    0.328606     1.12648  -1.37063e-05
3620  -0.00939231    0.328838    0.880012  2.17719e-05
3630  -0.0101771    0.328316     2.60409  2.17427e-05
3640  -0.00982716    0.328549     2.11079  -5.64051e-05
3650  -0.00904903    0.329066     2.66525  -6.62901e-06
3660  -0.00969458    0.328637     2.66519  -9.2466e-05
3670  -0.00719971    0.330296     2.54178  -0.000156885
3680  -0.00655688    0.330723     1.92603  9.32123e-05
3690  -0.00906395    0.329056     2.48043  0.000157829
3700  -0.00971345    0.328624     2.54172  1.47484e-05
