Time   C(t)   
ps   
0           1           1   1.716e-09   0.0439574
10    0.562872    0.792132     1.40302   0.0229844
20    0.540312    0.781404    0.673552  0.00201147
30    0.522643    0.773002     1.03798  0.00138194
40    0.512673    0.768261     2.02564  0.000938866
50    0.503865    0.764073     -2.2487  0.000967726
60    0.493318    0.759057    -1.93599   0.0010396
70    0.483073    0.754185    -2.35311   0.0011604
80     0.47011    0.748021   -0.737636   0.0007847
90    0.467379    0.746722    -1.57263  0.000203156
100    0.466047    0.746089    -1.26277  0.00017661
110    0.463847    0.745043    0.402182  0.000599267
120    0.454062     0.74039     1.08095  0.00058383
130     0.45217     0.73949    0.401725  0.000580007
140    0.442462    0.734873    -1.31566  0.000711122
150    0.437948    0.732727    -1.26379  0.000332235
160    0.435817    0.731714   -0.953317  0.000371148
170    0.430525    0.729197     -3.4016  0.000480723
180    0.426203    0.727142    -2.83003  0.000656255
190      0.4174    0.722956    -1.05752  0.000711939
200    0.411964    0.720371     1.07856  0.000396655
210    0.409467    0.719183    0.193014  1.46955e-05
220     0.41167    0.720231   -0.799074  0.000463939
230    0.400188    0.714771    -1.16193  0.000650576
240    0.398658    0.714043   -0.902971  1.04859e-05
250    0.399978    0.714671   -0.175181  0.000428073
260    0.390097    0.709972    -1.05864  0.000417337
270    0.391632    0.710702    -0.85288  -1.60247e-05
280    0.390417    0.710125    -2.67737  0.000413558
290     0.38336    0.706769    -1.99977  0.000518934
300    0.380039    0.705189    -1.06205  0.000128195
310    0.380797     0.70555   -0.698636  0.000438149
320    0.371276    0.701022    -1.26944  0.000543664
330    0.369923    0.700379    -1.11458  0.000279365
340    0.365688    0.698365    -1.63448  0.000362931
350    0.362665    0.696927    -2.72924  0.000114043
360    0.363408    0.697281     -2.3673  0.000358909
370    0.355486    0.693514    -2.41724  0.000576073
380    0.351886    0.691802     -2.0013  9.68277e-06
390    0.355293    0.693422    -0.91096  0.000115941
400    0.349567    0.690699  -0.0242952  0.000232887
410    0.350635    0.691207   -0.495064  0.000311911
420    0.343329    0.687733     2.05925  0.00049656
430    0.340704    0.686484     2.00646  0.000223632
440    0.338856    0.685606      2.8914  0.000229755
450    0.336109    0.684299     1.64142  0.000297515
460    0.332906    0.682776      2.0058  0.000455278
470    0.327003    0.679969     1.85085  0.00033246
480    0.326257    0.679614     1.22527  -0.000105339
490     0.32911    0.680971     2.31785  0.000153659
500    0.323184    0.678153   0.0251356  0.000542493
510     0.31826    0.675812     1.64224  0.000272828
520    0.317727    0.675558     2.83896  0.000115466
530    0.315951    0.674713     4.71237  -0.000116256
540    0.320052    0.676664     2.83525  0.000274439
550    0.310462    0.672103     2.83841  0.000444292
560    0.311166    0.672438     2.57568  0.000167809
570    0.307106    0.670507      3.2546  0.000412166
580    0.302923    0.668518     3.40966  0.00023673
590    0.302371    0.668256    0.284039  3.82245e-05
600    0.302159    0.668155      2.2111  0.000175111
610    0.298869    0.666591     1.69029  0.000123984
620    0.299679    0.666976    0.230487  0.000118756
630    0.296494    0.665461      2.4189  0.000135946
640     0.29696    0.665683     2.78287  -6.62506e-06
650    0.296626    0.665524    0.176479  0.000176591
660    0.293428    0.664003     1.06304  0.000171094
670    0.293204    0.663897     1.11369  0.000160152
680    0.290225     0.66248  -0.0838501  0.000246544
690    0.288274    0.661552   0.0209624  8.02815e-05
700     0.28862    0.661717    0.331586  8.06019e-05
710    0.286662    0.660785    -2.16831  0.000178665
720    0.285046    0.660017      -3.734  0.000409886
730    0.278464    0.656887    -1.90712  0.000202537
740    0.280995    0.658091   -0.293681  0.000203444
750    0.274395    0.654952    0.123842  0.000290251
760     0.27519    0.655331    -1.64837  -0.000149171
770    0.277378    0.656371    -1.38906  0.000140654
780    0.272377    0.653993   -0.710593  0.000320616
790    0.270966    0.653322    -1.07548  0.000187777
800    0.268622    0.652207    -1.43966  4.84139e-05
810    0.269998    0.652861    -1.44144  1.96159e-05
820     0.26823    0.652021    -1.91134  0.000369531
830    0.262607    0.649347    -1.23262  0.000224096
840    0.263748    0.649889    -2.48458  -4.40076e-05
850    0.263487    0.649765     -4.5695  0.000388978
860    0.255968     0.64619    -2.06726  0.000436325
870    0.254761    0.645616   -0.766179  0.000161856
880    0.252731     0.64465    -1.65101  0.000144579
890    0.251869    0.644241    -1.75527  0.000344888
900    0.245833     0.64137     -3.6303  0.000463024
910    0.242609    0.639837    -2.22334  2.23361e-05
920    0.245386    0.641158   -0.713696  -0.000101152
930    0.244632    0.640799    -1.44362  -2.4806e-05
940    0.245883    0.641394    -2.43571  -7.02515e-06
950    0.244772    0.640866    -2.12295  0.00029462
960     0.23999    0.638592    -3.47555  0.000289173
970    0.238989    0.638116    -2.69518  0.00018324
980    0.236325    0.636849    -2.74756  4.10564e-05
990    0.238168    0.637725    -4.20721  2.36146e-05
1000    0.235853    0.636625    -2.64407   0.0002555
1010    0.233058    0.635295    -1.75837  -4.18708e-05
1020    0.236691    0.637023    -2.64488  2.40155e-05
1030    0.232577    0.635067    -1.75989  5.9475e-05
1040    0.235501    0.636457    -1.24056  0.000215403
1050    0.228269    0.633018    -1.60377  0.000311059
1060     0.22928    0.633499   -0.303195  0.000150494
1070    0.225259    0.631587    -3.27178  4.85703e-05
1080    0.228308    0.633037    -3.89826  -0.000101052
1090     0.22728    0.632548    -2.07551  0.000193079
1100    0.224447      0.6312   -0.667726  -0.000161668
1110    0.230514    0.634086   -0.201332  -0.000101277
1120    0.226472    0.632164  -0.0960611  0.000392506
1130    0.222664    0.630353   -0.513075   0.0001277
1140    0.223918    0.630949   -0.408873  -1.07482e-05
1150    0.222879    0.630455   -0.722499  0.000219081
1160    0.219537    0.628866    -0.98125  -0.000180431
1170    0.226487    0.632171  0.00529176  0.00011692
1180    0.217198    0.627754  -0.0439854  0.000608147
1190    0.214324    0.626387    -2.02251  0.000111412
1200     0.21497    0.626694   0.0594032  4.49173e-05
1210    0.213426     0.62596   -0.774575  -0.000186662
1220    0.218703    0.628469    -0.67256  -5.86107e-05
1230    0.214598    0.626517    -1.45238  0.00011786
1240    0.216346    0.627348   -0.724279  4.50924e-05
1250    0.213696    0.626088    -0.93187  5.71631e-05
1260    0.215203    0.626805    0.316933  0.000400716
1270    0.205682    0.622277   -0.877709  0.000266035
1280    0.209882    0.624275    -1.86868  -0.000273085
1290    0.211144    0.624874    -3.64211  8.89249e-05
1300    0.208104    0.623429    -2.70286  5.80907e-05
1310    0.209982    0.624322    -3.01628  0.000212589
1320    0.203852    0.621407    -3.38041  0.000169464
1330    0.206593     0.62271    -3.48476  -3.969e-05
1340    0.204646    0.621784    -4.11013  9.4004e-06
1350    0.206405    0.622621    -3.01791  -0.000337104
1360    0.211388    0.624991    -1.61247  -5.25437e-05
1370    0.207456    0.623121    -1.76737  0.000207505
1380    0.207238    0.623017    -1.61125  0.000189544
1390    0.203665    0.621318    -2.02714  4.04924e-05
1400    0.206428    0.622632    -2.13364  -0.00025797
1410    0.208824    0.623771    -1.19774  2.82213e-05
1420    0.205863    0.622364    -3.12394  0.000502396
1430    0.198776    0.618993    -2.23713  0.000334585
1440    0.199172    0.619181    0.314593  0.000204404
1450    0.194688    0.617049    -2.34158  0.000524104
1460     0.18869    0.614197    -3.27783  0.00025555
1470    0.189577    0.614619    -2.60176  -7.62522e-05
1480    0.190215    0.614922    -4.27007  -0.000195849
1490    0.193494    0.616481   -0.415691  -0.00015844
1500    0.193383    0.616429   -0.259972  0.000193863
1510    0.189617    0.614638   0.0539074  0.00020043
1520    0.189375    0.614523    -1.14582  2.42285e-05
1530    0.189132    0.614407    -2.18861  2.43165e-05
1540    0.188889    0.614291   -0.938994  0.000328268
1550    0.182567    0.611285    -1.97909  0.000157551
1560    0.185738    0.612793    -1.56386  0.000133096
1570    0.179905    0.610019   -0.155668  0.000304421
1580    0.179649    0.609898   -0.832808  -0.000165259
1590     0.18321    0.611591    -1.14689  -1.25654e-05
1600      0.1799    0.610017   -0.677699  0.000108121
1610    0.181048    0.610563    -1.19988  -0.000133948
1620    0.182579    0.611291    -2.39972  -2.55451e-05
1630    0.181559    0.610806    -1.35667  5.74067e-05
1640    0.181431    0.610745   -0.523609  0.000358733
1650    0.174384    0.607394    0.311692  0.000429752
1660    0.172836    0.606658     0.10288  3.93137e-05
1670    0.173598     0.60702   -0.315152  -0.000108322
1680    0.175003    0.607688    -2.19105  -0.00019222
1690    0.177442    0.608848    -1.09909  0.000213422
1700    0.170734    0.605658   -0.419457   0.0003102
1710    0.171238    0.605898    -1.98336  -0.000115065
1720    0.173036    0.606753    0.933703  7.67037e-06
1730    0.171085    0.605825    -1.56691  -3.78981e-05
1740    0.173793    0.607113   -0.370587  0.000286522
1750    0.165354      0.6031    0.152616  -4.4553e-05
1760    0.174685    0.607537   -0.266891  -0.000258113
1770    0.170516    0.605555    0.202759  0.000430316
1780    0.166078    0.603444    -1.20217  7.29814e-05
1790    0.169057    0.604861    -1.15172  5.40227e-05
1800    0.164998    0.602931   -0.681464  0.000112471
1810    0.166807    0.603791    -1.62026  -6.99915e-05
1820    0.166398    0.603596   -0.215173  2.14212e-05
1830    0.166379    0.603587    0.410452  0.000146043
1840    0.163477    0.602207   -0.266943  -4.41775e-05
1850    0.167263    0.604008   -0.268113  -0.000293585
1860    0.169348    0.604999   -0.268826  0.00022543
1870    0.162754    0.601864    0.774829  0.00044945
1880    0.160359    0.600725    0.722194  -7.68922e-05
1890    0.164292    0.602595     0.51155  2.23555e-05
1900    0.159912    0.600512    0.669457  -3.09907e-05
1910    0.164912     0.60289   -0.373842  -6.3587e-05
1920    0.161184    0.601117    0.564236  0.000293692
1930    0.159038    0.600096     1.50196  0.000254679
1940     0.15609    0.598695    0.042815  -1.05858e-05
1950    0.159249    0.600197   -0.427444  -0.000256383
1960    0.161218    0.601133     1.23934  3.60303e-05
1970    0.158529    0.599854     1.34359  0.000162564
1980    0.157967    0.599587      3.5316  0.000129718
1990    0.155935    0.598621      1.9683  0.00013663
2000    0.155234    0.598288    0.979113  9.01848e-05
2010    0.154131    0.597763    0.666506  -0.000224697
2020    0.159728    0.600425    -2.14916  0.000198061
2030     0.15017    0.595879    -1.00104  0.000567229
2040    0.148384     0.59503    0.717513  -6.34357e-05
2050    0.151438    0.596483    0.143202  -0.00014412
2060    0.151266    0.596401    0.872163  -3.67261e-05
2070    0.152173    0.596832    0.871706  4.42833e-05
2080     0.15038     0.59598   -0.586318  0.000111844
2090    0.149936    0.595768    0.194566  4.45031e-05
2100     0.14949    0.595556    0.455454  0.000261617
2110    0.144704     0.59328    0.457235  -0.000158916
2120    0.152669    0.597068    0.141879  -0.000355662
2130    0.151817    0.596663   0.0900068  0.000153346
2140    0.149602    0.595609     1.28806  0.00018774
2150    0.148062    0.594877    0.611224  3.81291e-05
2160    0.148839    0.595247   -0.170729  -8.46192e-05
2170    0.149754    0.595682     1.75669  -0.000125857
2180    0.151356    0.596444    0.870127  -0.000119277
2190     0.15214    0.596816    0.295969  0.000305587
2200    0.145245    0.593537     1.96448  0.000154787
2210    0.149044    0.595344        1.13  -7.79323e-05
2220    0.146803    0.594279   -0.850261  0.000121151
2230    0.146621    0.594192    0.973314  2.51189e-05
2240    0.146301     0.59404     1.80581  5.27881e-05
2250    0.145566     0.59369   -0.382848  0.000198024
2260     0.14234    0.592156    -0.53872  4.5754e-06
2270    0.145474    0.593646     1.75348  6.04406e-05
2280    0.141131    0.591581    0.972957  0.000115623
2290    0.143162    0.592547   0.0863439  -7.12328e-05
2300    0.142556    0.592259   -0.330721  8.84302e-05
2310    0.141393    0.591706     0.34657  0.000227918
2320    0.137998    0.590091    -2.36138  0.000137689
2330    0.138639    0.590396   -0.589677  -0.000175982
2340    0.141517    0.591765     -1.9464  8.24891e-05
2350    0.136989    0.589612   -0.486135  0.00015223
2360    0.138473    0.590317      1.1805  -8.53904e-05
2370    0.138697    0.590424   -0.122315  -0.00010673
2380    0.140607    0.591332    0.813728  -7.87906e-05
2390    0.140273    0.591173     1.17821  1.93909e-05
2400     0.14022    0.591148     1.12598  6.17437e-05
2410    0.139038    0.590586     2.16841  0.000273599
2420    0.134748    0.588546    0.190851  8.32848e-05
2430    0.137372    0.589794    0.918541  -2.21856e-05
2440    0.135191    0.588757    0.241706  1.99735e-05
2450    0.136973    0.589604      1.6475  -3.65004e-05
2460    0.135921    0.589104    0.605016  0.000247396
2470    0.132025    0.587251   -0.176122  3.44694e-05
2480    0.135232    0.588776      2.6371  -0.000278406
2490    0.137593    0.589899     2.58421  9.17137e-05
2500    0.133398    0.587904     1.90752  0.000348636
2510     0.13062    0.586583  -0.0209126  6.36131e-06
2520     0.13327    0.587843     1.43782  0.000107031
2530     0.12848    0.585565     1.28261  0.000192847
2540    0.129414    0.586009     1.22978  -0.000229936
2550    0.133079    0.587752    0.967156  0.000215472
2560    0.125104     0.58396      1.3858  0.000402483
2570    0.125029    0.583924    0.188053  -0.000100607
2580    0.127116    0.584917   -0.542485  -0.000100713
2590    0.127043    0.584882    0.029588  4.3419e-05
2600    0.126248    0.584504     1.12425  0.00034027
2610    0.120238    0.581646     1.33357  0.00026841
2620     0.12088    0.581951   -0.438587  -1.3512e-05
2630    0.120508    0.581774     0.81093  9.53928e-05
2640    0.118972    0.581044   0.0825784  2.28062e-05
2650    0.120052    0.581557   -0.492241  5.9469e-05
2660    0.117782    0.580478    -1.01264  0.000205388
2670    0.115944    0.579604    0.602727  0.000257155
2680    0.112639    0.578033    0.134196  0.000184543
2690    0.112253    0.577849    0.445635  6.79798e-05
2700     0.11128    0.577386    -2.42007  -3.45945e-05
2710    0.112945    0.578178  -0.0778716  0.000185959
2720    0.107561    0.575617   -0.908949  0.000487698
2730    0.103191     0.57354    -1.16867  0.000216455
2740    0.103231    0.573559    -2.00331  0.000195197
2750   0.0992872    0.571683    -1.06452  0.000128953
2760    0.100652    0.572332   -0.544571  0.000100105
2770   0.0972851    0.570731   0.0289767  4.82135e-05
2780   0.0996881    0.571874    -1.43129  0.000137778
2790   0.0945296    0.569421   -0.858248  0.000471987
2800   0.0902483    0.567385    -3.20192  1.20141e-05
2810   0.0942893    0.569307   -0.806884  -2.46428e-05
2820   0.0907412    0.567619   -0.285515  0.000392638
2830   0.0864365    0.565572   -0.858197  0.000109776
2840   0.0885457    0.566575    -1.79719  0.000207769
2850   0.0822811    0.563596    0.131399  0.000185258
2860   0.0848405    0.564813   -0.859063  -0.000211235
2870   0.0865058    0.565605   -0.755521  0.000133754
2880   0.0821655    0.563541     0.33843  0.000246563
2890   0.0815746     0.56326  -0.0260501  0.000187232
2900   0.0784208    0.561761   -0.286634  0.000361102
2910   0.0743526    0.559826      -1.328  -8.37229e-05
2920   0.0800953    0.562557    -2.05971  -3.03019e-05
2930   0.0749586    0.560114    -1.90211  0.000309817
2940   0.0738989     0.55961    -2.94454  0.000128866
2950   0.0723813    0.558889    -1.95459  9.11932e-05
2960   0.0720751    0.558743    -2.63295  4.58945e-05
2970   0.0714634    0.558452     -1.5389  3.83992e-05
2980   0.0713071    0.558378    0.492572  0.000175913
2990   0.0679451    0.556779   -0.393176  0.000374877
3000   0.0638096    0.554812    0.544646  0.000322321
3010   0.0614987    0.553714   -0.757809  0.000170079
3020    0.060408    0.553195   -0.444745  -6.72843e-05
3030   0.0628444    0.554354    -2.00921  0.000194138
3040   0.0565252    0.551349   -0.705175  2.47052e-05
3050   0.0623503    0.554119    -1.85466  1.79429e-05
3060   0.0561664    0.551178    -1.07189  0.000310494
3070   0.0561404    0.551166   -0.759693  3.35043e-05
3080   0.0554963    0.550859   -0.083215  0.000203877
3090   0.0520629    0.549227   -0.290959  0.000281816
3100     0.04986    0.548179    0.386638  -2.00925e-05
3110   0.0524647    0.549418    -1.28274  -1.20331e-05
3120   0.0501006    0.548293    -1.95968  8.09843e-05
3130    0.050845    0.548647   -0.917905  4.24853e-05
3140   0.0492509    0.547889   -0.449374  0.000284567
3150   0.0451537    0.545941    0.019919  0.000347765
3160   0.0422956    0.544582     1.21823  0.000192226
3170   0.0413092    0.544113     1.73842  0.00032625
3180   0.0357706    0.541479     1.89501  0.000185483
3190   0.0375995    0.542349     1.21731  -0.00015169
3200   0.0388044    0.542922     1.84105  0.000139307
3210   0.0348134    0.541024     1.68538  0.000170893
3220   0.0353866    0.541296     2.41419  3.74088e-05
3230   0.0340652    0.540668    0.850438  0.000274797
3240   0.0298906    0.538683     2.51865  0.000259536
3250   0.0288745      0.5382     2.51738  4.62392e-05
3260   0.0289658    0.538243    0.485957  0.000412135
3270   0.0206318     0.53428     1.16412  0.000309228
3280   0.0227813    0.535302     1.37089  0.000151471
3290   0.0176023     0.53284    0.121986  0.000231227
3300   0.0181567    0.533103     1.31932  1.64451e-05
3310   0.0172734    0.532683    0.434085  8.04392e-05
3320    0.016548    0.532338     1.68436  -8.77341e-05
3330   0.0190281    0.533518     1.52742  8.89562e-05
3340   0.0147688    0.531492     1.11077  0.000169163
3350   0.0156449    0.531909     0.74481  -0.000136104
3360   0.0174909    0.532787     1.37033  -8.8016e-05
3370   0.0174052    0.532746   -0.401521  0.000259085
3380   0.0123092    0.530322    0.431591  0.000332298
3390   0.0107592    0.529585    0.275568  0.00019578
3400  0.00839362    0.528461     1.00544  -0.000306978
3410   0.0168988    0.532505     1.62796  9.97107e-06
3420   0.0081942    0.528366     1.68213  0.000366968
3430  0.00955944    0.529015    0.795715  -6.26715e-06
3440  0.00831954    0.528425       1.942  0.000107852
3450   0.0074024    0.527989     1.47265  0.000337268
3460  0.00157419    0.525218     2.36023  0.000190447
3470  0.00359347    0.526178     1.73329  -0.000308896
3480  0.00775211    0.528155      2.4092  -0.000128878
3490  0.00617103    0.527404     1.99183  -6.25465e-06
3500   0.0078772    0.528215     1.93976  0.000381407
3510  -0.00145712    0.523776     1.78521  0.000191825
3520  0.00404069    0.526391     1.67923  -7.92859e-05
3530  0.000128602     0.52453     1.83586  0.000482879
3540  -0.00561689    0.521798     1.52442  -1.34243e-05
3550  0.000397088    0.524658    0.324184  0.000195141
3560  -0.0095197    0.519942     1.83769  0.000385851
3570  -0.00731993    0.520988     1.31551  2.1346e-05
3580  -0.00994662    0.519739     1.31541  -0.000129173
3590  -0.00473648    0.522217     3.18973  -4.53868e-05
3600  -0.00903889    0.520171     2.66933  0.000305355
3610  -0.0108436    0.519313     1.88773  0.000189124
3620  -0.0128214    0.518372     2.09609  7.21163e-05
3630  -0.0122859    0.518627     1.05391  -0.000154573
3640  -0.0097299    0.519842     2.09481  -0.000104367
3650  -0.0101986    0.519619     1.73013  0.000139777
3660  -0.0125254    0.518513     2.98005  0.000241505
3670  -0.0150287    0.517322     3.60492  0.00042848
3680   -0.021095    0.514438       1.574  0.000115855
3690  -0.0173458    0.516221     2.40625  -2.73436e-05
3700  -0.0205482    0.514698     1.62527  0.000235683
3710  -0.0220594    0.513979    0.375192  0.000287669
3720  -0.0263015    0.511962     2.19876  0.000339549
3730  -0.0288504     0.51075     1.41798  0.000204034
3740  -0.0303822    0.510021      1.9392  -7.77066e-05
3750  -0.0272963    0.511489      2.4061  -0.000154736
3760  -0.0272875    0.511493     1.83306  0.000222391
3770  -0.0317441    0.509374      3.1371  0.000102305
3780  -0.0293336     0.51052     2.82266  0.000163479
3790  -0.0350137    0.507819     2.66775  6.84437e-05
3800  -0.0307025    0.509869     2.97965  -0.000233026
3810  -0.0303531    0.510035     1.98924  1.69589e-05
3820  -0.0310417    0.509708     1.67668  0.000259705
3830  -0.0355473    0.507565     3.03177  0.000121282
3840  -0.0334673    0.508554     2.97944  0.000209211
3850  -0.0397315    0.505576     3.81352  0.000252761
3860  -0.0385225     0.50615     3.91722  -0.000138555
3870  -0.0369604    0.506893     2.40503  -0.000147698
3880  -0.0355686    0.507555     2.61374  0.000114495
3890  -0.0392503    0.505804      4.0734  5.30453e-05
3900  -0.0366295    0.507051     3.65572  -0.0002098
3910  -0.0350543      0.5078     4.74896  9.40077e-06
3920  -0.0368175    0.506961     4.74967  -6.13369e-05
3930  -0.0338275    0.508383     4.33235  -3.467e-05
3940  -0.0361241    0.507291     4.22779  4.43591e-05
3950  -0.0347147    0.507961     3.86311  -4.37511e-05
3960  -0.0352491    0.507707     3.91457  0.000293072
3970  -0.0405762    0.505174     2.97792  0.00038251
3980  -0.0428993    0.504069     3.44711  -0.000114451
3990  -0.0382871    0.506262     3.13328  -0.000176659
4000  -0.0393661    0.505749     5.47807  0.000393866
4010  -0.0461645    0.502516     3.39493  0.000188936
4020  -0.0431448    0.503952     4.22784  -0.000159079
4030  -0.0429829    0.504029     3.60252  4.65838e-05
4040  -0.0440765    0.503509     2.92477  0.000226464
4050  -0.0475122    0.501876     2.03989  -0.000133221
4060  -0.0414121    0.504776     2.03836  7.46105e-05
4070  -0.0490044    0.501166     1.88427  7.37334e-05
4080  -0.0428867    0.504075     3.34113  -0.000151151
4090  -0.0459813    0.502604      3.8626  1.9823e-05
4100  -0.0432832    0.503887      2.0378  -0.000279378
4110  -0.0403938    0.505261      1.8296  0.000120029
4120  -0.0456838    0.502745     2.71606  0.000128872
4130  -0.0429712    0.504035     2.09034  6.60809e-05
4140  -0.0470054    0.502117     2.45573  0.000230331
4150  -0.0475778    0.501844     2.35179  2.07318e-05
4160    -0.04742    0.501919    0.788949  -0.000162645
4170  -0.0443249    0.503391     1.72565  -0.000199747
4180  -0.0434251    0.503819     1.15236  -0.000219044
4190   -0.039944    0.505474     1.88087  -0.000145774
4200  -0.0405096    0.505206     1.51664  0.000315364
4210  -0.0462513    0.502475     2.14246  2.90671e-05
4220  -0.0410909    0.504929     2.50608  -0.000155313
4230  -0.0431451    0.503952     2.29783  0.000205764
4240  -0.0452062    0.502972     2.40183  0.000290214
4250  -0.0489493    0.501192     3.34097  0.000253783
4260  -0.0502819    0.500558     1.83021  -0.0001186
4270  -0.0465773     0.50232     1.51608  -8.11536e-05
4280  -0.0486588     0.50133     2.29879  -2.57142e-05
4290  -0.0460631    0.502565     1.67343  -7.23232e-05
4300  -0.0472123    0.502018     2.24662  -2.59085e-05
4310  -0.0455449    0.502811     3.54892  0.000124955
4320  -0.0497114     0.50083     3.23697  1.1657e-05
4330   -0.045778      0.5027     1.98583  -8.21125e-05
4340  -0.0480692    0.501611  0.00587685  9.69593e-05
4350  -0.0477172    0.501778     1.20423  0.000192399
4360  -0.0519172    0.499781     2.35006  0.000230679
4370  -0.0523308    0.499584     1.88188  9.85762e-05
4380  -0.0538887    0.498843     1.98644  -0.000273089
4390   -0.046869    0.502181     1.77585  -0.00017779
4400  -0.0503329    0.500534     1.93304  0.000126898
4410   -0.049407    0.500975     1.88112  3.18747e-05
4420  -0.0509704    0.500231     1.93269  0.000175844
4430  -0.0529239    0.499302     1.98563  -6.41005e-05
4440  -0.0496884    0.500841     1.67236  -0.000121702
4450  -0.0504898     0.50046     2.08891  3.03332e-06
4460   -0.049749    0.500812     1.41213  0.000138617
4470  -0.0532622    0.499141     1.67322  2.24177e-05
4480  -0.0501974    0.500599     1.51638  -2.5451e-05
4490  -0.0527531    0.499383     1.51618  6.14997e-05
4500  -0.0514274    0.500014     0.52577  -0.00010359
4510  -0.0506813    0.500369    0.943245  -0.000143073
4520  -0.0485659    0.501374     -1.0897  -0.000202141
4530  -0.0466385    0.502291   -0.204461  -0.00019311
4540  -0.0447037    0.503211   -0.518241  -0.000125111
4550  -0.0441363    0.503481   0.0552571  0.000110359
4560  -0.0469109    0.502162   -0.204666  0.000169564
4570  -0.0475276    0.501868   -0.829423  -9.61509e-05
4580  -0.0449879    0.503076   -0.101277  6.20388e-05
4590  -0.0487683    0.501278   -0.569298  0.000230105
4600    -0.04959    0.500888   -0.309122  0.000211357
4610  -0.0529955    0.499268     1.82782  0.000192036
4620  -0.0534307    0.499061   -0.152285  -0.000195508
4630  -0.0490853    0.501127   -0.414546  0.00015353
4640  -0.0565013    0.497601   -0.153251  0.000523002
4650  -0.0595454    0.496153   -0.621069  -0.000185953
4660  -0.0527822     0.49937   -0.310242  -9.53894e-05
4670  -0.0576376    0.497061    0.419941  0.000325536
4680  -0.0592929    0.496273   -0.257556  -3.56352e-05
4690  -0.0569249      0.4974    0.105909  5.54331e-05
4700  -0.0604016    0.495746   -0.258217  8.54215e-05
4710  -0.0586333    0.496587    0.626973  -0.000116378
4720   -0.058074    0.496853    -0.51936  0.000207907
4730  -0.0627914     0.49461    0.106416  -8.67626e-05
4740  -0.0563388    0.497678    -1.35395  -0.000371345
4750  -0.0553645    0.498142   -0.520785  0.000361813
4760   -0.063575    0.494237   -0.155337  0.000300912
4770  -0.0613828     0.49528    -1.19828  -0.000168374
4780  -0.0602076    0.495839    -1.56383  0.00037515
4790  -0.0688858    0.491712     -1.4584  0.000457933
4800  -0.0693662    0.491483   -0.364455  -0.00015803
4810  -0.0657252    0.493215    -1.35578  0.000203257
4820  -0.0734313     0.48955     -1.4073  0.000461649
4830  -0.0749582    0.488824    -1.40689  5.96948e-05
4840  -0.0746252    0.488982   -0.208786  -0.000106106
4850   -0.072836    0.489833   -0.417802  0.000382796
4860  -0.0822811    0.485342     -1.3538  0.00015379
4870  -0.0759118    0.488371   -0.522158  -0.000293388
4880  -0.0764134    0.488132    -0.31355  0.000134045
4890  -0.0785927    0.487096     1.19752  0.000417622
4900  -0.0847658     0.48416     -1.2499  -6.46207e-05
4910  -0.0773003     0.48771     0.41531  -0.000400506
4920  -0.0767557    0.487969     -1.6691  0.000272547
4930  -0.0827513    0.485118    -1.61585  0.000198957
4940  -0.0807348    0.486077    -0.88791  -0.000127853
4950  -0.0801942    0.486334    0.101582  0.000126258
4960    -0.08326    0.484876    -2.18996  3.06558e-05
4970  -0.0808073    0.486043    -1.66981  0.000169872
4980  -0.0866574    0.483261   -0.835682  -1.10604e-06
4990  -0.0807852    0.486053   -0.732801  -0.000172084
