Time   Number   
ps   
0          21          21
10          21          25
20          19          21
30          21          21
40          18          24
50          19          31
60          18          27
70          23          22
80          18          22
90          16          30
100          18          26
110          20          25
120          18          21
130          18          27
140          18          25
150          18          25
160          21          21
170          21          21
180          22          24
190          20          26
200          17          25
210          23          23
220          20          29
230          19          27
240          20          26
250          21          28
260          21          23
270          17          27
280          18          21
290          19          22
300          21          23
310          16          29
320          19          22
330          20          29
340          20          22
350          20          20
360          17          26
370          16          27
380          17          26
390          18          26
400          19          24
410          17          24
420          17          23
430          17          25
440          16          26
450          19          25
460          16          25
470          12          22
480          19          30
490          14          29
500          15          29
510          17          31
520          15          31
530          18          23
540          16          27
550          17          32
560          17          21
570          15          24
580          20          23
590          22          24
600          15          31
610          15          29
620          15          26
630          19          25
640          16          26
650          22          21
660          15          29
670          17          27
680          16          22
690          20          23
700          19          24
710          18          28
720          16          25
730          20          24
740          18          26
750          18          21
760          19          21
770          15          28
780          20          28
790          15          25
800          20          24
810          23          23
820          18          24
830          15          28
840          18          33
850          20          26
860          16          30
870          16          28
880          17          24
890          22          20
900          17          27
910          14          28
920          21          24
930          19          22
940          17          24
950          14          27
960          18          25
970          17          23
980          18          24
990          17          27
1000          22          25
1010          15          28
1020          20          22
1030          20          25
1040          22          22
1050          19          24
1060          19          25
1070          19          26
1080          16          26
1090          16          30
1100          21          22
1110          18          29
1120          22          24
1130          22          23
1140          20          26
1150          19          27
1160          21          26
1170          18          30
1180          21          22
1190          20          28
1200          19          25
1210          20          24
1220          22          29
1230          18          26
1240          20          27
1250          18          32
1260          20          30
1270          21          24
1280          23          26
1290          20          31
1300          23          24
1310          24          27
1320          17          32
1330          19          32
1340          19          24
1350          20          27
1360          21          28
1370          21          26
1380          17          31
1390          18          30
1400          20          22
1410          20          25
1420          19          21
1430          19          25
1440          23          22
1450          19          21
1460          23          18
1470          24          21
1480          16          27
1490          21          21
1500          20          27
1510          22          29
1520          25          24
1530          23          27
1540          18          31
1550          23          24
1560          19          28
1570          23          17
1580          21          23
1590          20          20
1600          22          26
1610          21          27
1620          19          26
1630          21          25
1640          23          26
1650          19          33
1660          23          25
1670          22          23
1680          18          27
1690          21          26
1700          22          24
1710          19          29
1720          22          26
1730          20          28
1740          21          29
1750          18          29
1760          24          19
1770          22          23
1780          18          25
1790          18          25
1800          22          27
1810          20          26
1820          22          30
1830          22          24
1840          19          29
1850          21          22
1860          22          29
1870          23          25
1880          21          24
1890          20          26
1900          20          26
1910          18          27
1920          25          25
1930          20          25
1940          21          25
1950          20          28
1960          21          25
1970          22          28
1980          19          31
1990          19          29
2000          20          22
2010          23          23
2020          22          24
2030          21          27
2040          25          28
2050          23          21
2060          24          20
2070          20          22
2080          19          27
2090          16          32
2100          19          23
2110          21          24
2120          25          24
2130          22          24
2140          17          26
2150          19          27
2160          20          23
2170          19          24
2180          25          20
2190          22          25
2200          21          34
2210          20          22
2220          22          23
2230          21          26
2240          24          24
2250          23          23
2260          21          23
2270          18          24
2280          20          25
2290          22          21
2300          20          24
2310          21          27
2320          22          23
2330          21          26
2340          20          24
2350          18          25
2360          22          22
2370          18          22
2380          23          18
2390          19          19
2400          20          21
2410          17          27
2420          23          17
2430          16          25
2440          21          23
2450          21          23
2460          19          26
2470          19          28
2480          18          29
2490          22          24
2500          23          24
2510          21          25
2520          24          24
2530          20          28
2540          23          23
2550          20          20
2560          21          21
2570          22          22
2580          21          25
2590          18          27
2600          19          31
2610          22          28
2620          21          30
2630          21          26
2640          21          26
2650          22          25
2660          22          26
2670          21          24
2680          21          23
2690          23          21
2700          21          24
2710          22          24
2720          21          24
2730          21          26
2740          20          25
2750          20          27
2760          22          23
2770          20          26
2780          19          28
2790          22          25
2800          24          25
2810          19          27
2820          21          29
2830          22          26
2840          19          30
2850          20          26
2860          19          32
2870          24          24
2880          24          25
2890          19          28
2900          25          22
2910          23          27
2920          22          23
2930          18          30
2940          20          35
2950          21          30
2960          22          27
2970          20          29
2980          22          24
2990          20          31
3000          18          24
3010          19          25
3020          20          27
3030          17          26
3040          23          21
3050          22          26
3060          18          28
3070          16          32
3080          22          28
3090          19          27
3100          21          29
3110          17          27
3120          21          27
3130          19          25
3140          19          24
3150          17          27
3160          18          27
3170          18          24
3180          20          22
3190          23          26
3200          19          29
3210          21          26
3220          24          23
3230          15          31
3240          18          26
3250          20          27
3260          20          23
3270          20          27
3280          21          30
3290          22          31
3300          20          28
3310          21          29
3320          21          32
3330          19          27
3340          21          24
3350          18          32
3360          18          23
3370          18          23
3380          19          27
3390          15          26
3400          20          27
3410          22          21
3420          20          25
3430          21          26
3440          17          36
3450          20          24
3460          21          25
3470          19          27
3480          15          25
3490          18          32
3500          18          25
3510          20          29
3520          19          30
3530          19          29
3540          18          28
3550          17          29
3560          20          27
3570          20          29
3580          17          29
3590          18          24
3600          20          24
3610          21          26
3620          21          25
3630          19          28
3640          18          35
3650          21          26
3660          22          25
3670          25          29
3680          21          27
3690          22          29
3700          17          31
3710          22          25
3720          24          29
3730          23          22
3740          19          26
3750          19          29
3760          17          34
3770          17          33
3780          21          25
3790          23          23
3800          24          28
3810          23          22
3820          22          29
3830          21          29
3840          21          20
3850          21          28
3860          24          23
3870          21          28
3880          22          26
3890          18          29
3900          21          23
3910          20          23
3920          21          22
3930          20          21
3940          21          20
3950          20          23
3960          23          23
3970          22          22
3980          23          22
3990          21          23
4000          20          26
4010          23          20
4020          19          23
4030          22          17
4040          22          21
4050          19          22
4060          21          20
4070          18          21
4080          21          19
4090          19          15
4100          19          21
4110          19          19
4120          21          18
4130          21          17
4140          19          20
4150          22          19
4160          20          21
4170          20          21
4180          21          21
4190          20          21
4200          21          20
4210          19          20
4220          21          24
4230          19          21
4240          17          22
4250          20          18
4260          21          23
4270          15          24
4280          22          21
4290          19          25
4300          22          24
4310          22          18
4320          21          22
4330          20          19
4340          18          23
4350          21          24
4360          22          19
4370          23          20
4380          21          22
4390          18          20
4400          18          20
4410          21          20
4420          20          23
4430          19          20
4440          21          21
4450          20          22
4460          19          21
4470          22          19
4480          19          19
4490          19          19
4500          17          21
4510          17          24
4520          20          19
4530          24          18
4540          22          21
4550          22          21
4560          22          16
4570          20          21
4580          19          19
4590          20          28
4600          19          26
4610          21          21
4620          22          19
4630          19          27
4640          22          20
4650          17          23
4660          22          25
4670          18          26
4680          22          21
4690          23          22
4700          21          21
4710          17          26
4720          18          20
4730          20          21
4740          22          22
4750          23          19
4760          20          21
4770          23          19
4780          21          27
4790          19          23
4800          22          22
4810          23          18
4820          22          23
4830          18          24
4840          25          22
4850          21          22
4860          22          19
4870          22          26
4880          21          26
4890          21          25
4900          22          17
4910          23          24
4920          24          22
4930          22          29
4940          22          22
4950          21          20
4960          22          21
4970          23          26
4980          21          25
4990          20          26
5000          22          25
5010          18          25
5020          20          23
5030          21          27
5040          21          23
5050          20          24
5060          20          22
5070          16          25
5080          22          24
5090          19          27
5100          22          22
5110          21          23
5120          25          20
5130          21          22
5140          18          26
5150          20          23
5160          18          25
5170          18          24
5180          19          26
5190          21          21
5200          21          21
5210          24          22
5220          17          21
5230          19          21
5240          20          22
5250          19          23
5260          23          20
5270          24          20
5280          19          30
5290          22          21
5300          21          26
5310          20          21
5320          21          22
5330          19          28
5340          20          21
5350          19          23
5360          24          21
5370          19          29
5380          22          26
5390          22          24
5400          22          29
5410          24          24
5420          21          24
5430          25          22
5440          19          24
5450          20          25
5460          19          30
5470          22          27
5480          22          22
5490          21          25
5500          20          26
5510          16          29
5520          21          28
5530          24          19
5540          22          25
5550          20          25
5560          18          28
5570          20          25
5580          19          30
5590          22          20
5600          23          26
5610          23          24
5620          25          23
5630          22          25
5640          22          24
5650          20          24
5660          18          29
5670          20          27
5680          22          27
5690          21          29
5700          20          30
5710          18          29
5720          20          31
5730          21          29
5740          21          31
5750          22          25
5760          24          26
5770          23          22
5780          22          22
5790          23          21
5800          21          25
5810          20          26
5820          18          23
5830          18          27
5840          20          25
5850          22          21
5860          23          22
5870          22          19
5880          23          20
5890          21          20
5900          17          27
5910          22          18
5920          22          21
5930          21          19
5940          20          27
5950          23          21
5960          21          22
5970          22          21
5980          18          21
5990          19          24
6000          20          22
6010          21          22
6020          17          25
6030          18          27
6040          21          25
6050          23          22
6060          25          21
6070          23          21
6080          15          29
6090          19          20
6100          19          24
6110          22          22
6120          17          25
6130          19          28
6140          18          26
6150          19          14
6160          16          28
6170          19          22
6180          18          25
6190          15          26
6200          18          19
6210          21          18
6220          17          21
6230          16          21
6240          21          19
6250          15          25
6260          17          24
6270          20          23
6280          16          22
6290          22          26
6300          20          22
6310          16          21
6320          19          24
6330          20          25
6340          20          25
6350          21          20
6360          19          25
6370          19          26
6380          18          24
6390          20          23
6400          20          17
6410          24          14
6420          20          23
6430          20          24
6440          18          26
6450          16          27
6460          22          21
6470          21          14
6480          15          26
6490          19          22
6500          20          26
6510          22          18
6520          21          18
6530          20          16
6540          19          20
6550          25          16
6560          19          17
6570          19          25
6580          19          23
6590          16          23
6600          17          21
6610          18          19
6620          18          19
6630          18          20
6640          19          20
6650          18          21
6660          13          20
6670          11          20
6680          18          19
6690          17          25
6700          19          17
6710          20          19
6720          20          25
6730          16          24
6740          15          25
6750          19          21
6760          20          25
6770          20          22
6780          21          22
6790          18          20
6800          18          23
6810          22          22
6820          19          24
6830          18          24
6840          19          21
6850          20          17
6860          21          16
6870          22          13
6880          18          26
6890          22          23
6900          16          27
6910          19          21
6920          13          27
6930          18          25
6940          18          21
6950          20          24
6960          19          26
6970          14          26
6980          13          27
6990          18          27
7000          16          22
7010          21          21
7020          22          21
7030          18          28
7040          21          19
7050          21          22
7060          23          24
7070          21          25
7080          19          22
7090          18          22
7100          20          21
7110          17          23
7120          17          22
7130          19          28
7140          18          28
7150          16          27
7160          21          22
7170          21          21
7180          20          26
7190          21          22
7200          20          25
7210          18          23
7220          19          22
7230          16          25
7240          17          19
7250          17          26
7260          16          27
7270          20          20
7280          18          25
7290          21          28
7300          18          26
7310          18          29
7320          22          21
7330          19          24
7340          18          26
7350          18          31
7360          18          26
7370          18          28
7380          18          29
7390          22          19
7400          19          27
7410          19          28
7420          21          26
7430          17          31
7440          20          27
7450          21          21
7460          19          26
7470          22          18
7480          20          21
7490          17          30
7500          21          24
7510          22          19
7520          21          23
7530          22          22
7540          20          27
7550          20          25
7560          20          27
7570          18          27
7580          21          21
7590          17          23
7600          22          26
7610          19          17
7620          21          20
7630          20          23
7640          21          23
7650          19          21
7660          16          26
7670          19          24
7680          20          22
7690          17          23
7700          20          20
7710          17          26
7720          16          25
7730          20          19
7740          19          20
7750          18          28
7760          22          21
7770          19          25
7780          19          29
7790          19          23
7800          22          24
7810          20          24
7820          19          22
7830          22          25
7840          20          22
7850          19          23
7860          22          22
7870          22          20
7880          17          29
7890          21          20
7900          20          25
7910          20          23
7920          16          24
7930          19          31
7940          19          26
7950          24          20
7960          21          28
7970          21          30
7980          20          24
7990          19          25
8000          25          26
8010          18          28
8020          22          29
8030          21          25
8040          22          23
8050          23          22
8060          21          27
8070          19          30
8080          20          22
8090          21          26
8100          21          22
8110          23          21
8120          21          30
8130          21          25
8140          24          23
8150          19          25
8160          19          23
8170          24          26
8180          21          21
8190          20          30
8200          18          25
8210          17          31
8220          17          28
8230          18          23
8240          20          27
8250          19          26
8260          19          24
8270          19          28
8280          21          23
8290          21          25
8300          21          21
8310          18          22
8320          23          20
8330          15          25
8340          21          24
8350          16          23
8360          19          20
8370          23          19
8380          17          25
8390          20          19
8400          20          25
8410          17          26
8420          18          21
8430          20          20
8440          22          17
8450          18          24
8460          20          21
8470          22          19
8480          21          22
8490          22          18
8500          23          17
8510          22          22
8520          20          22
8530          22          19
8540          25          20
8550          17          25
8560          20          22
8570          22          19
8580          20          23
8590          23          25
8600          22          24
8610          22          20
8620          20          22
8630          18          24
8640          21          20
8650          24          18
8660          18          16
8670          20          18
8680          21          21
8690          18          24
8700          15          28
8710          17          26
8720          17          23
8730          15          27
8740          18          20
8750          18          21
8760          18          23
8770          18          19
8780          16          20
8790          20          17
8800          20          21
8810          17          21
8820          19          24
8830          14          23
8840          14          20
8850          18          17
8860          17          23
8870          15          17
8880          15          20
8890          16          22
8900          15          25
8910          16          27
8920          19          23
8930          18          20
8940          23          19
8950          15          24
8960          20          24
8970          14          27
8980          19          21
8990          16          28
9000          16          26
9010          17          26
9020          17          23
9030          22          19
9040          16          22
9050          18          22
9060          20          21
9070          18          25
9080          20          20
9090          18          30
9100          18          30
9110          20          20
9120          20          24
9130          19          22
9140          19          22
9150          15          25
9160          18          21
9170          16          23
9180          18          19
9190          17          24
9200          15          21
9210          18          23
9220          20          18
9230          15          28
9240          19          23
9250          18          21
9260          18          26
9270          21          20
9280          17          23
9290          17          20
9300          18          25
9310          15          25
9320          17          25
9330          17          19
9340          16          21
9350          16          27
9360          14          23
9370          15          25
9380          14          24
9390          17          30
9400          20          25
9410          17          22
9420          16          28
9430          20          20
9440          21          25
9450          22          24
9460          16          26
9470          21          19
9480          18          23
9490          18          24
9500          18          25
9510          18          22
9520          16          25
9530          15          24
9540          19          22
9550          17          22
9560          17          22
9570          17          24
9580          18          25
9590          19          21
9600          19          26
9610          23          21
9620          14          30
9630          19          26
9640          20          24
9650          22          20
9660          19          23
9670          18          30
9680          16          25
9690          18          26
9700          17          24
9710          19          19
9720          16          29
9730          17          23
9740          18          28
9750          20          25
9760          18          23
9770          21          20
9780          19          26
9790          20          25
9800          21          27
9810          19          22
9820          22          20
9830          18          21
9840          22          18
9850          18          24
9860          18          26
9870          18          18
9880          17          23
9890          20          21
9900          19          23
9910          19          27
9920          21          22
9930          20          22
9940          19          22
9950          16          24
9960          20          27
9970          22          22
9980          21          22
9990          17          24
10000          19          18
