Time   C(t)   
ps   
0           1           1  5.32469e-10   0.0227303
10    0.776425    0.800748   -0.397368   0.0128965
20    0.742071    0.770131    0.568143  0.00306266
30    0.715172    0.746159    -0.60438  0.00254401
40     0.69119    0.724787  -0.0416794  0.00216123
50    0.671947    0.707637   -0.178823  0.00185059
60    0.654179    0.691801   -0.382823  0.00164193
70    0.639109    0.678371   -0.338691  0.00148863
80    0.624406    0.665268    -1.12794  0.00142574
90    0.610594    0.652958    0.221679  0.00138503
100    0.596705    0.640581    0.851851  0.00128181
110    0.584958    0.630111   -0.184012   0.0011734
120    0.573238    0.619666    0.896049  0.00120451
130    0.560868    0.608642    0.557412  0.00109558
140    0.551326    0.600138     1.00646  0.000998986
150    0.540888    0.590836    0.759631  0.00104231
160     0.53048     0.58156    0.353962  0.000886345
170    0.523161    0.575038    0.689696  0.00078907
180    0.514698    0.567496   0.0597209  0.000767952
190    0.507802     0.56135    -0.39186  0.000809881
200    0.498501     0.55306   -0.685177  0.000810173
210    0.491599    0.546909    -1.02408  0.00070478
220    0.484405    0.540498   -0.596475  0.000752887
230    0.476541    0.533489   0.0105987  0.000761972
240    0.469166    0.526916     -1.3628  0.000734468
250    0.461851    0.520398    -1.31812  0.000618179
260    0.456802    0.515898    0.302025  0.000598015
270    0.449891    0.509739   0.0541579  0.000677833
280    0.443245    0.503816  -0.0138637  0.000648747
290    0.436916    0.498176   -0.532235  0.000601788
300     0.43121     0.49309    -1.50078  0.000675653
310    0.423403    0.486133   -0.375313  0.000690921
320    0.417391    0.480775   -0.646631  0.000631194
330    0.410779    0.474882    -2.17726  0.000655486
340    0.404281    0.469091   -0.511907  0.000655562
350    0.397668    0.463197    -1.61526  0.000544313
360    0.393395    0.459389   -0.941004  0.000554529
370    0.386577    0.453313    -1.57113  0.000543965
380    0.382516    0.449694   -0.739226  0.00044771
390    0.377623    0.445333    -1.30276  0.00050519
400    0.372412    0.440689    -1.91089  0.000448298
410    0.368657    0.437343    -1.34883  0.00048921
420    0.362628    0.431969    -2.36227  0.00049787
430      0.3587    0.428469    -2.36291  0.000513209
440    0.352364    0.422822    -3.12818  0.000475389
450    0.349192    0.419995    -2.07094  0.000371848
460    0.344927    0.416194    -2.07146  0.000465782
470    0.339876    0.411693     -1.9812  0.000445968
480    0.336007    0.408245    -1.84669  0.000379494
490    0.332287    0.404929    -2.74737  0.000378986
500    0.328428     0.40149    -2.07234  0.000456502
510    0.323157    0.396792    -2.59071  0.00040926
520    0.320242    0.394195    -2.14085  0.000321656
530    0.316723    0.391059    -1.33039  0.000281855
540    0.314605    0.389171    -2.07445  0.00032039
550    0.310316    0.385348    -1.82689  0.00046733
560    0.305259    0.380841    -1.89421  0.000334838
570    0.303619     0.37938    -1.76048  0.000296442
580     0.29933    0.375558    -1.55738  0.000366414
590    0.296291    0.372849    -1.37767  0.000300305
600    0.293324    0.370205    -1.22028  0.000320673
610    0.289877    0.367133    -2.27911  0.000320034
620    0.286923    0.364501    -1.24362  0.000224629
630    0.285385    0.363129    -1.28921  0.000233084
640    0.282261    0.360346   -0.973954  0.000307386
650    0.279237    0.357651    -1.69479  0.000304097
660     0.27618    0.354926    -1.24525  0.000328514
670    0.272667    0.351795    -1.80764  0.000216706
680    0.271845    0.351063    -2.32656  0.000186862
690    0.268929    0.348464    -2.16909  0.000318418
700    0.265477    0.345388    -2.66437  0.000279266
710    0.263344    0.343487     -2.2596  0.000225461
720    0.260968    0.341369    -2.82263  0.000248544
730    0.258373    0.339057    -3.20599  0.00030902
740    0.254787    0.335861    -3.25093  0.000224248
750    0.253888     0.33506    -2.89144  0.000192848
760     0.25093    0.332424    -3.11667  0.000320154
770    0.247485    0.329353    -2.77883  0.000330175
780    0.244327    0.326539     -2.2392  0.000277309
790    0.241939     0.32441    -2.89219  0.000271264
800    0.238902    0.321704    -1.94652  0.000306719
810    0.235805    0.318943    -2.21696  0.000195867
820    0.234984    0.318212    -1.90211  0.000185665
830    0.232091    0.315634     -1.8791  0.00023978
840    0.230189    0.313939     -1.4071  0.000199913
850    0.228093    0.312071    -1.49703  0.000208472
860    0.226019    0.310223    -1.45217  0.000272454
870    0.222644    0.307214    -1.56453  0.000308101
880    0.219857    0.304731    -1.90228  0.000124647
890    0.220151    0.304993    -1.72279  0.000146799
900    0.216921    0.302114    -1.11475  0.000213414
910    0.215883    0.301189     -1.4982  0.000101249
920    0.214896     0.30031     -2.1518  0.000140923
930    0.213064    0.298677    -1.90406  0.000177956
940    0.211337    0.297138    -1.52156  0.000211049
950    0.208843    0.294915    -1.83686  0.000189643
960    0.207544    0.293758    -1.38712  0.000135499
970    0.206133      0.2925    -1.70275  0.000160384
980    0.204337    0.290899    -1.18473  0.000144297
990    0.203247    0.289928   -0.983146  0.00019677
1000    0.200401    0.287392    -1.20809  0.000212189
1010    0.199004    0.286146   -0.982816  0.000186647
1020    0.196668    0.284065     -1.3435  0.000175997
1030    0.195484    0.283009    -1.81646  7.18094e-05
1040    0.195232    0.282785   -0.893828  0.000156122
1050    0.192361    0.280226    -1.77119  0.000219782
1060    0.190836    0.278867      -2.222  0.000136102
1070    0.189639      0.2778    -2.08729  0.000183444
1080    0.187168    0.275598    -2.37962  0.000192075
1090    0.185798    0.274377    -2.24496  0.000198123
1100    0.183205    0.272066    -2.37989  0.000248439
1110    0.180829    0.269949    -2.55984  0.000180956
1120    0.179586    0.268841    -2.22279  0.000184223
1130    0.177144    0.266665    -1.50246  0.000237475
1140    0.174837    0.264608    -2.13301  0.000169701
1150     0.17375     0.26364    -1.86308  0.000205047
1160    0.170736    0.260953   -0.602269  0.000204008
1170     0.16967    0.260004    -1.68356  0.000138827
1180    0.167959    0.258479    -1.43598  0.000207739
1190    0.165515    0.256301    -1.54767  0.00021097
1200     0.16374    0.254719    -2.24617  0.000145511
1210    0.162605    0.253708    -1.95356  0.000158541
1220    0.160569    0.251893    -1.93141  0.000137751
1230     0.15985    0.251252    -2.38233  0.000132511
1240    0.157919    0.249531      -2.382  0.000163759
1250    0.156575    0.248333    -1.99938  0.000155684
1260    0.154805    0.246756    -1.95435  7.54826e-05
1270    0.155065    0.246988    -2.63092  0.000128114
1280    0.152243    0.244472    -2.54024  0.000179199
1290    0.151481    0.243794    -2.60835  0.000113093
1300    0.149981    0.242457    -2.60839  0.000189985
1310    0.147682    0.240408    -2.18053  0.000180441
1320    0.146372     0.23924    -2.29354  0.000156721
1330    0.144547    0.237614    -2.36114  9.86181e-05
1340      0.1444    0.237483    -1.91103  0.000116067
1350    0.142226    0.235545    -3.12681  0.000139073
1360    0.141618    0.235004     -2.6994  9.51707e-05
1370    0.140323    0.233849    -2.49712  0.000106805
1380    0.139482      0.2331    -2.18187  6.83889e-05
1390    0.138955     0.23263    -2.38519  0.000153196
1400    0.136418    0.230369    -1.75422  0.000193644
1410    0.135082    0.229179    -2.72285  0.000148165
1420    0.133455    0.227729    -2.29455  0.000162882
1430    0.131824    0.226275    -2.02514  0.000143072
1440    0.130593    0.225178    -2.76835  7.56405e-05
1450    0.130311    0.224927    -3.19648  8.74326e-05
1460    0.128845     0.22362    -2.16077  0.000177219
1470    0.126767    0.221768    -2.85874  0.000116793
1480    0.126509    0.221538    -2.11624  0.000112826
1490    0.124511    0.219757    -2.29679  0.000150719
1500    0.123494    0.218852    -2.38727  9.5921e-05
1510    0.122592    0.218048    -1.82444  0.000109254
1520    0.121309    0.216904    -2.52255  0.000196863
1530    0.118655    0.214539    -1.84706  0.000179744
1540    0.117715    0.213701    -2.56747  7.80851e-05
1550    0.117093    0.213147    -2.77037  0.000164528
1560    0.114424    0.210768    -2.59007  0.000233586
1570    0.112421    0.208983    -2.58958  8.03407e-05
1580    0.112817    0.209336    -2.99536  -7.35112e-06
1590    0.112568    0.209114    -3.08578  5.72115e-05
1600    0.111673    0.208316    -2.50037  8.96595e-05
1610    0.110775    0.207516    -2.79316  9.72368e-05
1620    0.109728    0.206583     -2.4556  0.000149057
1630    0.107794     0.20486     -2.7931  9.77062e-05
1640    0.107774    0.204842    -2.97358  5.22457e-05
1650    0.106749    0.203928    -2.88343  2.86434e-05
1660    0.107201    0.204331    -2.72637  3.32516e-05
1670    0.106084    0.203336    -2.86114  0.000126657
1680    0.104668    0.202074    -2.68092  7.94251e-05
1690    0.104496     0.20192    -2.61369  7.5236e-05
1700    0.103163    0.200733     -3.0191  0.000137854
1710    0.101739    0.199463    -3.06376  0.000102417
1720    0.101115    0.198907    -2.11829  4.90122e-05
1730    0.100758    0.198589    -1.91556  0.000102913
1740   0.0990567    0.197073    -1.89312  9.86066e-05
1750   0.0987862    0.196832    -2.23112  0.000101923
1760   0.0970183    0.195256    -2.34363  0.000156035
1770   0.0956655     0.19405    -1.93838  0.000106908
1780   0.0948801     0.19335    -1.82598  0.00010721
1790   0.0935213     0.19214    -2.74943  9.08852e-05
1800   0.0930624     0.19173    -3.31239  9.82061e-06
1810   0.0933249    0.191964    -2.83985  6.26899e-05
1820   0.0918086    0.190613    -2.47941  0.000132183
1830   0.0906813    0.189608     -3.2225  0.000111369
1840   0.0895812    0.188628    -3.71806  0.000101047
1850   0.0886603    0.187807    -2.81758  4.82555e-05
1860   0.0886161    0.187768    -3.22338  9.69879e-05
1870   0.0867206    0.186079    -3.47061  0.000145731
1880   0.0857015     0.18517    -2.93017  7.76894e-05
1890   0.0851668    0.184694    -3.22345  7.94407e-05
1900   0.0841127    0.183754    -3.85382  9.3329e-05
1910   0.0833002     0.18303    -3.38077  9.66236e-05
1920   0.0821802    0.182032    -3.29035  5.25113e-05
1930     0.08225    0.182094     -3.5158  2.5158e-05
1940    0.081677    0.181584    -3.13307  1.44631e-05
1950   0.0819607    0.181837    -3.17853  -2.84042e-05
1960   0.0822451     0.18209    -3.15582  6.52298e-05
1970   0.0806561    0.180674    -3.56103  8.06581e-05
1980    0.080632    0.180652    -2.90807  -8.36514e-06
1990   0.0808234    0.180823    -2.84099  4.09737e-05
2000   0.0798125    0.179922    -2.41306  9.34925e-05
2010   0.0789536    0.179157     -2.7509  8.91019e-05
2020   0.0780305    0.178334    -2.97633  8.46744e-05
2030   0.0772601    0.177647    -2.66112  5.54461e-05
2040   0.0769215    0.177346    -2.50332  5.56164e-05
2050   0.0761478    0.176656    -2.14301  2.93236e-05
2060   0.0763351    0.176823    -2.88624  3.41225e-05
2070   0.0754653    0.176048    -2.16594  6.68373e-05
2080   0.0749983    0.175632    -1.91842  5.14466e-05
2090   0.0744364    0.175131    -2.03123  4.53293e-05
2100   0.0740917    0.174824    -2.16657  1.06171e-07
2110   0.0744343    0.175129    -2.12174  3.30366e-05
2120    0.073431    0.174235    -2.16693  0.000108278
2130   0.0722687    0.173199    -1.98662  7.08621e-05
2140   0.0720138    0.172972    -2.36943  2.86695e-05
2150   0.0716953    0.172688    -2.32497  2.71633e-05
2160   0.0714705    0.172488    -2.63994  6.6635e-05
2170   0.0703626      0.1715    -2.21214  7.93733e-05
2180    0.069883    0.171073    -2.70758  3.06495e-05
2190   0.0697496    0.170954    -2.03231  0.000101918
2200   0.0678447    0.169256    -2.21214  0.000125819
2210   0.0672332    0.168711    -2.05508  2.95036e-05
2220   0.0672546     0.16873     -2.5282  6.61369e-05
2230   0.0659105    0.167533     -1.8977  0.000172727
2240   0.0638001    0.165652    -2.01027  0.000165169
2250   0.0626071    0.164589    -2.34761  6.84384e-05
2260   0.0624313    0.164432     -2.3706  7.34612e-05
2270   0.0611379    0.163279    -2.50596  0.000124705
2280   0.0599372    0.162209    -2.03288  8.02377e-05
2290   0.0595331    0.161849    -1.69559  3.72434e-05
2300   0.0591923    0.161545    -1.74073  0.000123974
2310   0.0570537    0.159639    -1.29023  0.00011454
2320   0.0569015    0.159504    -1.44796  2.97209e-05
2330   0.0564592    0.159109    -1.40302  3.62227e-05
2340   0.0561771    0.158858    -1.06528  9.27737e-05
2350   0.0546038    0.157456    -1.85348  0.000125224
2360   0.0536726    0.156626    -1.98877  8.67836e-05
2370   0.0528681    0.155909    -1.71886  2.87471e-05
2380   0.0530976    0.156114    -2.34972  6.29289e-05
2390   0.0516095    0.154787    -1.58399  0.000155504
2400   0.0499876    0.153342    -1.65133  6.32634e-05
2410   0.0503443     0.15366    -1.65168  6.19324e-05
2420   0.0487489    0.152238    -1.33643  9.45585e-05
2430   0.0484531    0.151974    -1.58405  2.63611e-05
2440   0.0482217    0.151768    -1.78669  5.7479e-05
2450   0.0473035     0.15095    -1.98921  7.55811e-05
2460   0.0467101    0.150421    -1.62928  0.000116766
2470   0.0449682    0.148869    -1.42627  7.26985e-05
2480   0.0452561    0.149125    -1.42658  2.7029e-05
2490   0.0444276    0.148387     -1.8995  9.77673e-05
2500   0.0433008    0.147383     -1.4266  9.80046e-05
2510   0.0424675     0.14664    -1.62937  -6.69621e-07
2520   0.0433141    0.147394    -1.06718  -1.54193e-05
2530   0.0427759    0.146915    -1.72001  5.88616e-05
2540   0.0421369    0.146345    -1.67489  1.09876e-05
2550   0.0425561    0.146719    -1.92291  -3.83798e-06
2560   0.0422137    0.146414    -2.08045  6.41814e-05
2570   0.0412725    0.145575     -1.2248  6.5982e-05
2580    0.040894    0.145238    -1.20241  4.60055e-06
2590   0.0411805    0.145493    -1.02236  6.31195e-06
2600   0.0407678    0.145125   -0.391442  -7.07172e-06
2610   0.0413219    0.145619   -0.819946  -7.01677e-06
2620   0.0409081     0.14525   -0.797308  7.15649e-05
2630   0.0398906    0.144343    -0.32441  6.50132e-05
2640   0.0396079    0.144091   -0.617243  4.51012e-05
2650   0.0389886     0.14354     -0.7521  3.84824e-05
2660   0.0388382    0.143405   -0.189179  -8.50316e-06
2670   0.0391587    0.143691   -0.572342  -3.54694e-05
2680   0.0395476    0.144038   -0.302212  6.90686e-05
2690   0.0377773     0.14246   -0.279201  0.000106294
2700   0.0374217    0.142143   -0.346915  6.09903e-05
2710   0.0365575    0.141373   -0.549727  5.26562e-05
2720   0.0363686    0.141205   -0.414914  6.13313e-05
2730   0.0353309     0.14028   -0.820342  0.00012601
2740   0.0338484    0.138959   -0.910165  8.88947e-05
2750    0.033553    0.138695   -0.955308  1.93587e-05
2760   0.0334612    0.138613    -1.22581  9.18694e-06
2770   0.0333692    0.138532    -1.15852  -3.52152e-05
2780   0.0341655    0.139241   -0.798694  -1.47147e-05
2790   0.0336635    0.138794   -0.708386  9.65264e-05
2800    0.032235    0.137521   -0.978451  4.69645e-05
2810   0.0327242    0.137957   -0.798782  2.48956e-05
2820   0.0317371    0.137077   -0.911067  6.27233e-05
2830   0.0314698    0.136839   -0.978627  -3.18211e-05
2840   0.0323735    0.137644    -1.09153  6.13127e-06
2850   0.0313472    0.136729    -1.00144  4.23046e-05
2860   0.0315274     0.13689    -1.22632  -4.91999e-05
2870   0.0323312    0.137606    -0.28096  2.67942e-06
2880   0.0314738    0.136842    0.237016  7.02406e-05
2890   0.0309263    0.136354   -0.168279  1.83404e-05
2900    0.031107    0.136515    0.619409  3.58397e-05
2910   0.0302095    0.135716      0.1015  5.85156e-05
2920   0.0299367    0.135472   0.0789282  2.38271e-05
2930    0.029733    0.135291    0.371872  3.26378e-05
2940    0.029284    0.134891    0.889716  5.54609e-05
2950   0.0286238    0.134302    0.889606  6.96171e-05
2960   0.0278916     0.13365     0.66431  3.29647e-05
2970   0.0279645    0.133715    0.709233  8.93518e-05
2980   0.0261046    0.132057    0.506684  0.000124662
2990   0.0254712    0.131493    0.777035  2.6412e-05
3000   0.0255763    0.131586     1.06976  3.36051e-05
3010   0.0247991    0.130894     1.00207  3.89372e-05
3020   0.0247976    0.130892     1.81233  9.7513e-05
3030   0.0228489    0.129156     1.31734  0.000138426
3040   0.0220291    0.128425     1.45242  7.14487e-05
3050   0.0214199    0.127882     1.18259  -2.60977e-05
3060    0.022551     0.12889     1.38475  -7.94519e-05
3070   0.0230089    0.129298     1.42934  2.54481e-05
3080   0.0220421    0.128437        1.61  6.29114e-05
3090   0.0217507    0.128177     1.83534  6.49354e-05
3100   0.0207434    0.127279    0.979518  7.58136e-05
3110   0.0202344    0.126826      1.0922  3.48273e-05
3120   0.0200468    0.126658    0.799255  7.44559e-05
3130   0.0187453    0.125499    0.754442  0.000105166
3140   0.0179435    0.124784     1.00222  2.08651e-05
3150    0.018328    0.125127    0.461432  4.08533e-05
3160   0.0171264    0.124056     1.27211  0.000111297
3170   0.0161021    0.123143     1.00185  5.91794e-05
3180   0.0159428    0.123001     1.38459  4.31139e-05
3190   0.0152398    0.122374     1.65444  9.58088e-05
3200   0.0140267    0.121293    0.709123  6.69877e-05
3210   0.0139001     0.12118      1.1142  -9.15639e-06
3220   0.0142098    0.121456     1.27171  3.09341e-05
3230   0.0132814    0.120629     1.20448  4.37083e-05
3240   0.0133356    0.120677    0.776265  3.29471e-05
3250   0.0126224    0.120042     1.36182  9.1564e-05
3260   0.0115043    0.119045     1.40686  4.96468e-05
3270   0.0116295    0.119157      1.4967  1.6833e-05
3280   0.0111677    0.118745     1.09136  8.67059e-05
3290  0.00989538    0.117611     1.33927  6.11311e-05
3300  0.00994506    0.117656     1.13615  4.11245e-05
3310  0.00907289    0.116878    0.956242  2.27123e-05
3320  0.00949082    0.117251     1.45127  6.23288e-06
3330  0.00894823    0.116767     1.42839  2.2846e-05
3340   0.0090339    0.116844     1.18075  4.89363e-05
3350  0.00796951    0.115895     1.72143  8.80134e-05
3360  0.00727363    0.115275     1.40611  6.78409e-05
3370  0.00661269    0.114686     1.36108  6.99113e-05
3380   0.0058754    0.114029     1.42866  1.22563e-05
3390  0.00636756    0.114467      1.0907  8.65271e-06
3400  0.00570235    0.113875     1.15835  7.59803e-05
3410  0.00484795    0.113113    0.888374  8.93193e-05
3420  0.00391596    0.112283     1.00099  2.1995e-05
3430  0.00440805    0.112721    0.505475  -1.92052e-05
3440  0.00430007    0.112625     1.42866  2.96541e-05
3450  0.00381497    0.112193    0.910946  1.65187e-05
3460  0.00396969     0.11233     0.55086  1.50356e-06
3470   0.0037849    0.112166    0.550816  5.26477e-06
3480   0.0038644    0.112237    0.910616  3.94133e-05
3490  0.00299664    0.111463    0.325476  7.1725e-05
3500   0.0024299    0.110958     1.24861  1.11436e-05
3510  0.00277376    0.111265     1.36079  -2.07874e-06
3520  0.00247147    0.110995     1.40595  4.74381e-05
3530    0.001825    0.110419     1.18072  4.37409e-05
3540  0.00159665    0.110216     0.77554  3.62531e-05
3550  0.00109994    0.109773    0.978264  4.01778e-05
3560  0.000793097    0.109499    0.865474  7.48571e-05
3570  -0.000397205    0.108439    0.392794  4.04294e-05
3580  -1.54913e-05    0.108779     1.11305  6.56987e-05
3590  -0.00171118    0.107268    0.910792  5.6108e-05
3600  -0.00113765    0.107779     0.68543  -4.20041e-05
3610  -0.000871097    0.108016    0.685342  -5.76303e-05
3620  1.49562e-05    0.108806    0.392377  -5.46834e-06
3630  -0.00076173    0.108114     0.57264  0.000101066
3640  -0.00200636    0.107005    0.887737  5.27748e-05
3650  -0.00181723    0.107173    0.977802  -4.03429e-05
3660  -0.0011995    0.107724     1.22505  3.1676e-05
3670  -0.00245075    0.106608    0.932572  5.8955e-05
3680  -0.0023786    0.106673     1.18033  1.62332e-05
3690  -0.00277541    0.106319     1.31552  3.38697e-05
3700  -0.00305599    0.106069     1.22547  5.16386e-05
3710  -0.00380818    0.105399     1.04567  2.6229e-05
