Time   C(t)   
ps   
0           1           1  2.55539e-10     0.02368
10     0.76496    0.810232    -1.02915   0.0131753
20    0.736493    0.787248    0.279776  0.00267065
30    0.711547    0.767107    0.513737  0.00221004
40    0.692292    0.751561  -0.0249366  0.00177377
50    0.676071    0.738465    0.581312  0.00164082
60    0.659476    0.725066   -0.190636  0.00155999
70    0.644872    0.713275   -0.684601  0.00138913
80    0.631693    0.702635    0.133928  0.00126493
90    0.619573    0.692849    0.789159  0.00114744
100    0.608744    0.684106   -0.779502  0.00101956
110    0.599182    0.676385   -0.616043  0.000981563
120    0.589113    0.668256   -0.593861  0.00106525
130    0.577877    0.659184   0.0847181  0.000974071
140    0.569632    0.652527      1.0445  0.00080376
150    0.561802    0.646205    0.271205  0.000779504
160    0.554042     0.63994   -0.548605  0.000841621
170    0.544969    0.632615   -0.104877  0.000859112
180    0.536859    0.626067     0.12858  0.000767085
190    0.529628    0.620228     1.90698  0.000622809
200    0.524403     0.61601    0.267297  0.000563481
210    0.518358    0.611129    0.454218  0.000709379
220    0.510216    0.604555     1.10963  0.000746903
230     0.50342    0.599068   -0.107986  0.000575885
240    0.498698    0.595256     1.90367  0.000628009
250     0.49086    0.588928     1.31896  0.000685795
260    0.484982    0.584182     1.55187  0.000648007
270    0.477899    0.578464     2.20756  0.000614381
280    0.472694    0.574261     1.43477  0.000515169
290    0.467596    0.570145     2.23029  0.000529324
300    0.462108    0.565714      1.9254  0.000549415
310    0.456608    0.561273      2.4166  0.000515452
320    0.451799     0.55739     2.86041  0.000541426
330    0.445779     0.55253     2.55641  0.000519066
340    0.441418    0.549009     2.36883  0.000432213
350    0.437135    0.545551     2.27479  0.000506513
360    0.431287     0.54083     3.53872  0.000481035
370    0.427514    0.537783     3.32733  0.000511529
380    0.421057     0.53257     1.94614  0.00054782
390    0.416558    0.528937     2.32021  0.000438546
400    0.412286    0.525488     2.06263  0.000432056
410    0.407917    0.521961     2.69378  0.000465436
420    0.402977    0.517972     2.97395  0.000444205
430    0.399033    0.514788     3.34853  0.000334154
440    0.396294    0.512577     3.01974  0.000336361
450    0.392305    0.509356      1.9428  0.000409713
460      0.3881    0.505961     3.37041  0.000492291
470     0.38246    0.501407     2.62117  0.000445661
480    0.379187    0.498764     2.90188  0.000327632
490    0.375907    0.496116     2.33976  0.000407277
500    0.371041    0.492188     2.69081  0.000540835
510     0.36509    0.487383     3.27638  0.000479212
520    0.361457     0.48445      2.6675  0.000374186
530    0.357607    0.481341     2.33917  0.000358514
540    0.354286     0.47866     2.01122  0.000324848
550     0.35111    0.476095     1.42592  0.000378023
560    0.346726    0.472556     2.15186  0.000308231
570    0.344945    0.471118     2.31472  0.000330056
580    0.340125    0.467226     2.38552  0.000389257
590     0.33716    0.464833     2.82916  0.000393169
600    0.332262    0.460878     2.26817  0.000232643
610    0.332507    0.461076     3.62498  0.000148909
620    0.329283    0.458473     3.60049  0.000318213
630    0.326143    0.455938      2.1962  0.000253896
640    0.324205    0.454373        2.36  0.000231786
650    0.321507    0.452195     2.05577  0.000326189
660    0.317682    0.449106     1.84507  0.000357157
670    0.314364    0.446427     2.31351  0.00021978
680    0.313286    0.445557     2.54617  0.000211258
690    0.310139    0.443016     2.66346  0.000251113
700    0.308264    0.441502     1.84379  0.000245658
710    0.305226    0.439049     2.05392  0.000352941
720    0.301205    0.435803     2.07779  0.000291014
730    0.299405     0.43435     2.68589  0.000248955
740    0.296226    0.431783     1.84326  0.000332049
750    0.292764    0.428988     1.96018  0.000292924
760    0.290367    0.427053     3.31775  0.000149482
770    0.289775    0.426574     1.56158  0.000111504
780    0.288137    0.425252     1.98232  0.000237696
790    0.285021    0.422736    0.905933  0.000301227
800    0.282113    0.420388     1.60866  0.000160208
810    0.281817    0.420149     2.09917  0.00012061
820    0.279701    0.418441     1.67774  0.000279751
830    0.276222    0.415632     1.81751  0.000351374
840    0.272673    0.412767      1.4433  0.000280979
850    0.270602    0.411095     1.11547  0.000198054
860    0.268712    0.409569      1.7713  0.000139593
870     0.26781    0.408841     1.39608  0.000129056
880    0.266131    0.407485    0.857432  0.000133966
890    0.265131    0.406677    0.903968  0.000114086
900    0.263849    0.405643     1.46537  0.000176597
910    0.261599    0.403826    0.833696  0.000258003
920    0.258689    0.401476    0.880849  0.000305365
930    0.255492    0.398895     1.37235  0.000223215
940    0.254225    0.397872     1.39521  0.000147162
950    0.252548    0.396518     1.93311  0.000241414
960    0.249396    0.393974     2.02691  0.000282636
970    0.246896    0.391955     1.37177  0.00022364
980    0.244924    0.390362     1.20797  0.000192755
990    0.243041    0.388842     1.04362  0.00019638
1000    0.240996    0.387191     1.32476  0.00021883
1010    0.238664    0.385308     1.48851  0.000211389
1020    0.236768    0.383778     1.67557  0.000170863
1030    0.235247    0.382549     1.44077  0.000217097
1040    0.232426    0.380272     1.60482  0.00024439
1050    0.230359    0.378603     0.85574  0.00012465
1060    0.229933    0.378259    0.714967  0.000172581
1070    0.226907    0.375816    0.761823  0.000223586
1080    0.225462    0.374649    0.878586  0.000181276
1090    0.223282    0.372889    0.574147  0.000153038
1100    0.222401    0.372178    0.456607  0.00014387
1110    0.220404    0.370566    0.293011  0.000161683
1120    0.219167    0.369567    0.667174  0.000254685
1130    0.215311    0.366453   -0.315318  0.000231121
1140    0.214545    0.365835     1.11154  0.000169423
1150    0.211922    0.363717    0.573987  0.00022094
1160    0.210126    0.362267     1.22858  0.000173388
1170    0.208454    0.360918    0.971178  0.000154541
1180    0.207035    0.359772    0.830587  0.000182249
1190    0.204809    0.357975     1.50905  0.000143987
1200    0.204155    0.357447     0.47888  0.000163717
1210    0.201535    0.355331   0.0346964  0.000172057
1220    0.200714    0.354668    0.548925  0.000122526
1230    0.199085    0.353353    0.712978  0.000180932
1240    0.197096    0.351747    0.689881  0.000137638
1250    0.196332     0.35113    0.127266  8.13283e-05
1260    0.195469    0.350433   -0.293524  0.000105838
1270    0.194215    0.349421    0.736097  0.000117429
1280    0.193121    0.348537      0.8763  0.000151809
1290    0.191179     0.34697     0.85286  6.7509e-05
1300     0.19177    0.347447    0.594478  0.00010692
1310    0.189041    0.345243    0.384323  0.000134709
1320    0.189076    0.345272     1.64772  7.64064e-05
1330    0.187512    0.344009     1.50741  0.000190878
1340    0.185259     0.34219     1.22659  0.000196188
1350    0.183589    0.340841     2.30277  0.000137705
1360    0.182505    0.339966     3.02795  0.000185639
1370    0.179876    0.337844     2.09209  0.000182682
1380    0.178851    0.337016     1.55335  0.000110863
1390    0.177659    0.336054     1.69364  0.000132522
1400      0.1762    0.334876      2.0207  0.000188825
1410    0.173882    0.333004     1.62319  0.00022057
1420    0.171789    0.331315     1.60009  0.000171541
1430    0.170451    0.330234     2.18502  0.000100877
1440    0.169772    0.329686     1.92698  0.000188912
1450    0.166673    0.327184     1.78692  0.000202458
1460    0.165722    0.326416     1.95056  0.000138332
1470    0.163906     0.32495     2.32534  0.000110386
1480    0.163515    0.324634     2.09079  9.07652e-05
1490    0.162091    0.323485     1.62236  0.000127546
1500    0.160964    0.322574     2.25422  0.000184557
1510      0.1584    0.320504     1.59897  0.000136495
1520    0.158234     0.32037     1.48157  4.83774e-05
1530    0.157432    0.319723     1.38765  6.85476e-05
1540    0.156863    0.319263     1.17699  0.000160856
1550    0.154215    0.317126  -0.0401474  0.000174528
1560    0.153372    0.316445    0.848929  0.000180092
1570    0.150613    0.314218    0.591164  0.00018376
1580    0.149697    0.313478     0.91863  0.000135496
1590    0.147904     0.31203    0.567496  0.000181262
1600    0.146072    0.310551    0.614717  0.000122642
1610    0.145451    0.310049    0.754806  5.03801e-05
1620    0.145064    0.309737     1.08239  0.000106326
1630    0.143324    0.308332     1.62101  0.000167444
1640    0.141715    0.307034     1.31612  0.000140727
1650     0.14051     0.30606     1.73743   0.0001394
1660    0.138927    0.304783     1.01239  8.87334e-05
1670    0.138735    0.304627     1.59657  6.35095e-05
1680    0.137657    0.303757     1.50322  9.59694e-05
1690    0.136816    0.303077     1.71363  7.57582e-05
1700    0.136142    0.302534     1.50295  0.000106691
1710    0.134682    0.301355      1.6668  0.000137664
1720    0.133389    0.300311     2.41608  9.69298e-05
1730    0.132743    0.299789     2.01729  0.000114325
1740    0.131102    0.298465      2.1116  2.19129e-05
1750    0.132305    0.299436    0.916847  0.000101154
1760    0.129079    0.296831     1.83035  0.000218075
1770    0.127943    0.295914      2.6961  5.17085e-05
1780    0.128045    0.295996     2.71906  -3.26335e-06
1790    0.128009    0.295967     1.96973  9.33751e-05
1800    0.126177    0.294488     2.29772  0.000195469
1810    0.124099    0.292811     2.50867  0.000171719
1820    0.122743    0.291716      1.8295  9.42163e-05
1830    0.122215    0.291289     2.67211  5.80754e-05
1840    0.121582    0.290778     2.64849  8.59868e-05
1850    0.120495    0.289901     3.25695  0.000127912
1860    0.119023    0.288712     2.62535  9.51078e-05
1870    0.118593    0.288365     2.53122  3.96322e-05
1880    0.118231    0.288072     3.16322  3.10157e-05
1890    0.117973    0.287864      1.6887  1.36059e-05
1900    0.117959    0.287853     3.32691  0.000127404
1910    0.115425    0.285807     3.49133  0.00014508
1920    0.115057     0.28551     2.57794  8.76881e-05
1930    0.113671    0.284391     2.27375  0.000128223
1940    0.112493    0.283439     3.84207  0.000119764
1950    0.111276    0.282457     2.50771  9.01431e-05
1960     0.11069    0.281984     2.83532  6.92435e-05
1970    0.109891    0.281339     2.62471  0.000113531
1980    0.108419    0.280151     3.74783  0.000117314
1990    0.107545    0.279444     3.18584  0.000130023
2000    0.105819    0.278051      3.4203  0.000156871
2010    0.104407    0.276911     3.74788  3.13513e-05
2020    0.105192    0.277545     3.30242  4.57544e-05
2030    0.103492    0.276173     3.51339  0.000100846
2040    0.103175    0.275916     4.00482  0.000101191
2050    0.101468    0.274539      3.7238  4.60941e-05
2060    0.102253    0.275172     3.84095  4.4601e-05
2070    0.100576    0.273818     3.93439  0.000189293
2080   0.0984669    0.272115     3.86451  0.000153953
2090   0.0974971    0.271332     3.91077  0.000131152
2100   0.0958439    0.269998     3.44276  0.00017627
2110   0.0939717    0.268486     3.65392  9.04772e-05
2120   0.0940343    0.268537     3.41932  3.33074e-05
2130   0.0933055    0.267948     3.27895  6.9347e-05
2140   0.0926474    0.267417     3.11467  8.93347e-05
2150   0.0915188    0.266506     3.95728  2.81658e-05
2160   0.0920841    0.266962     3.51225  4.82388e-05
2170   0.0905541    0.265727     3.95705  0.000113368
2180   0.0898167    0.265131     3.86364  9.74204e-05
2190   0.0886057    0.264154     4.30821  3.7754e-05
2200   0.0890616    0.264522      4.5654  -1.83769e-05
2210   0.0889732     0.26445     4.40151  6.88724e-05
2220   0.0876842     0.26341      3.4884  0.000145467
2230   0.0860639    0.262101     3.84013  7.65208e-05
2240   0.0861538    0.262174     3.55835  3.78713e-06
2250   0.0859881     0.26204     3.81584  6.77798e-05
2260   0.0847982    0.261079     4.44782  0.000100829
2270   0.0839715    0.260412     4.26058  6.62815e-05
2280   0.0834725    0.260009     4.42484  8.66864e-05
2290   0.0822378    0.259012     4.47162  -1.79265e-05
2300   0.0838311    0.260299     4.61114  7.79234e-05
2310   0.0806793    0.257754     4.19072  0.000182879
2320   0.0801735    0.257345     4.47137  1.92735e-05
2330   0.0802939    0.257443     5.47794  1.75186e-05
2340   0.0798231    0.257063     4.82244  3.41937e-05
2350     0.07961    0.256891     5.00941  8.06104e-05
2360   0.0782109    0.255761       4.659  9.55764e-05
2370   0.0776985    0.255347     5.29047  -1.37053e-05
2380    0.078485    0.255982     5.47753  -1.92385e-05
2390   0.0780832    0.255658     5.36047  7.93386e-05
2400   0.0768982    0.254701     5.43058  4.59243e-05
2410   0.0771647    0.254916     4.58802  6.9432e-06
2420   0.0767594    0.254589     5.05624  -2.86162e-05
2430   0.0777371    0.255378     4.28354  6.68794e-05
2440   0.0754218    0.253509     4.82244  0.000106205
2450    0.075613    0.253663     5.24341  1.27938e-05
2460   0.0751659    0.253302     4.54105  5.03924e-05
2470   0.0746051     0.25285      4.7282  9.00455e-05
2480    0.073365    0.251848     4.75134  9.7784e-05
2490   0.0726494    0.251271     5.07904  8.8637e-05
2500   0.0715923    0.250417     4.82187  5.67101e-05
2510   0.0715152    0.250355     4.63437  3.98938e-05
2520   0.0707944    0.249773     4.40014  5.89199e-05
2530   0.0703368    0.249404     4.82157  7.23753e-05
2540   0.0693469    0.248604     4.56378  8.77347e-05
2550   0.0685821    0.247987     4.14267  8.07457e-06
2560   0.0691854    0.248474     3.95493  -8.95672e-06
2570   0.0687613    0.248131     4.11859  7.10875e-05
2580   0.0677636    0.247326     3.88468  7.88774e-05
2590   0.0671837    0.246858     3.90816  0.000144134
2600    0.064881    0.244999     5.03172  0.000104186
2610      0.0651    0.245175     4.72722  2.02592e-05
2620   0.0644758    0.244671     5.12507  8.93947e-05
2630   0.0633121    0.243732     4.68029  4.15225e-05
2640   0.0636453    0.244001      4.7271  5.71521e-05
2650   0.0621691    0.242809      4.7274  5.33223e-05
2660   0.0625789     0.24314     4.98432  2.65537e-05
2670    0.061638     0.24238     4.70353  7.29585e-05
2680   0.0611197    0.241962     5.38211  4.41404e-05
2690   0.0607552    0.241667     4.77359  5.58924e-05
2700   0.0600019    0.241059     5.00767  8.12612e-05
2710     0.05913    0.240355      5.4522  0.000122305
2720   0.0575558    0.239084      5.2181  0.000108972
2730   0.0569505    0.238596     5.03106  7.2298e-05
2740   0.0561098    0.237917     5.28819  8.41891e-05
2750   0.0552667    0.237236     4.67968  6.29205e-05
2760   0.0548514    0.236901     4.42191  0.000104233
2770   0.0531821    0.235553     4.63314  0.000147565
2780   0.0519001    0.234518     4.77337  0.00012445
2790   0.0506931    0.233543     4.25813  0.00012677
2800   0.0493647    0.232471       4.118  -1.46439e-05
2810   0.0509859     0.23378     3.43862  -2.63119e-05
2820   0.0498909    0.232896     3.64951  7.4126e-05
2830   0.0495034    0.232583     4.37467  -3.2372e-05
2840   0.0505384    0.233419     4.63207  4.87868e-05
2850   0.0485277    0.231795     4.79658  8.43942e-05
2860   0.0488505    0.232056     4.14066  7.3852e-06
2870     0.04838    0.231676     4.37412  6.50013e-05
2880   0.0475505    0.231006     4.28086  0.000108951
2890    0.046201    0.229917     4.95942  0.000167037
2900   0.0442097    0.228309     4.84272  0.00018942
2910   0.0424126    0.226858     4.39758  8.00237e-05
2920   0.0426093    0.227017     4.25697  2.6335e-05
2930   0.0418859    0.226433     4.70168  0.000122569
2940   0.0401579    0.225037     4.37407  6.06051e-05
2950   0.0406738    0.225454     4.32705  2.27332e-05
2960   0.0397032     0.22467      4.4437  0.000173707
2970   0.0371996    0.222649     3.36773  0.000107558
2980   0.0375521    0.222934     4.11617  0.000106046
2990   0.0350787    0.220937     3.83579  0.00019309
3000   0.0336903    0.219816     4.09348  6.81777e-05
3010   0.0337152    0.219836     4.56115  1.55121e-06
3020   0.0336592    0.219791     4.16264  7.26301e-05
3030   0.0322626    0.218663     3.81164  8.29205e-05
3040   0.0320008    0.218452     4.06854  5.6757e-05
3050   0.0311274    0.217746     4.25594  0.000138456
3060   0.0292317    0.216216     4.06886  7.34211e-05
3070    0.029659    0.216561     3.48337  9.22083e-05
3080   0.0273875    0.214727     2.73477  0.000133252
3090    0.026994    0.214409     2.78101  2.91542e-05
3100   0.0268044    0.214256     3.69378  3.54098e-05
3110   0.0262858    0.213837     3.31895  8.48748e-05
3120    0.025107    0.212886     3.81059  0.000103615
3130   0.0242135    0.212164     2.92103  8.12372e-05
3140   0.0234822    0.211574      3.1552  6.70204e-05
3150    0.022873    0.211082     2.66345  9.62022e-05
3160   0.0215582     0.21002     3.45952  5.0841e-05
3170   0.0218562    0.210261     3.76357  7.80803e-05
3180   0.0199966     0.20876     4.60611  0.000111405
3190   0.0196281    0.208462     3.78662  3.06739e-05
3200   0.0193831    0.208264     3.85664  7.66407e-05
3210   0.0180953    0.207224     4.04391  0.00010183
3220   0.0173465     0.20662     3.85699  -6.55102e-06
3230   0.0182263     0.20733     3.41173  4.58993e-05
3240   0.0164285    0.205879     3.95031  0.000152787
3250   0.0151706    0.204863     3.83366  7.13558e-05
3260   0.0150014    0.204726     3.10772   6.956e-05
3270   0.0137794     0.20374     3.03761  5.70643e-05
3280   0.0138601    0.203805     2.89695  6.99716e-05
3290     0.01238     0.20261     2.99075  7.64109e-05
3300   0.0123319    0.202571     3.01401  3.23148e-05
3310   0.0117337    0.202088       3.178  2.69641e-06
3320    0.012278    0.202528     4.06703  4.73611e-05
3330   0.0107865    0.201323     3.64596  2.60969e-05
3340    0.011756    0.202106     2.38135  7.1054e-05
3350  0.00936538    0.200176     2.47563  9.87344e-05
3360  0.00978133    0.200512      2.7793  -3.73911e-05
3370   0.0101132     0.20078     2.31135  -1.17105e-06
3380  0.00980475    0.200531     2.33434  -1.19281e-05
3390   0.0103518    0.200972     2.42773  2.45586e-05
3400  0.00931358    0.200134     2.56809  4.81454e-05
3410  0.00938886    0.200195     2.77893  3.76245e-05
3420  0.00856109    0.199527     2.33452  8.72215e-05
3430  0.00764443    0.198787     2.33456  4.64807e-05
3440  0.00763147    0.198776     2.24078  5.61802e-06
3450  0.00753207    0.198696      1.8663  5.10938e-05
3460   0.0066096    0.197951     1.67924  5.76937e-05
3470   0.0063782    0.197764      2.0535  4.48972e-05
3480  0.00571166    0.197226     1.65592  1.6736e-05
3490  0.00604348    0.197494     2.56818  3.79458e-06
3500  0.00563576    0.197165     2.28743  -5.73172e-05
3510  0.00718982     0.19842      2.4042  6.49792e-05
3520  0.00433618    0.196116     2.40422  0.000121721
3530  0.00475541    0.196454     2.96645  -4.41718e-05
3540  0.00521962    0.196829     2.26386  3.03058e-05
3550  0.00414929    0.195965     2.66189  3.90669e-05
3560  0.00443828    0.196198     2.68524  -9.13667e-06
3570  0.00433203    0.196112     2.82556  2.16766e-05
3580  0.00400475    0.195848     2.61437  4.38138e-05
3590  0.00345575    0.195405      2.8018  7.26837e-05
3600  0.00255107    0.194674      2.1698  3.07939e-05
3610  0.00283987    0.194907     2.26356  2.21113e-05
3620  0.00210885    0.194317     2.49789  7.32161e-05
3630  0.00137555    0.193725     2.77838  9.56975e-05
3640  0.000194896    0.192772     2.87225  4.91402e-05
3650  0.000392745    0.192932      2.9887  2.51833e-06
3660  0.000144529    0.192731     3.38717  3.38106e-05
3670  -0.000283467    0.192386     3.62106  2.0465e-05
3680  -0.000264771    0.192401     3.78484  -9.3851e-05
3690  0.00159355    0.193901     3.83144  -0.000111972
3700  0.00197467    0.194209     3.48029  -1.7919e-05
3710  0.00195193    0.194191     4.01839  2.27102e-06
