Time   C(t)   
ps   
0           1           1  1.08948e-11    0.023793
10    0.767801    0.789576   -0.653278   0.0139187
20    0.721625     0.74773     1.22884  0.00404449
30    0.686911    0.716271   -0.656211  0.00310037
40    0.659618    0.691537    -1.83017  0.00289751
50    0.628961    0.663756    -2.13444  0.00265484
60    0.606521     0.64342    -1.83052  0.00213307
70      0.5863    0.625095    -2.59517  0.00198545
80    0.566812    0.607434     -2.3925  0.00190093
90    0.548281    0.590641    -2.90187  0.00177455
100    0.531321    0.575271    -3.41249  0.00162294
110    0.515822    0.561226    -2.64997    0.001618
120    0.498961    0.545946    -4.07533  0.00150447
130    0.485733    0.533959    -4.02555  0.00129354
140     0.47309    0.522501    -2.85433  0.00121825
150    0.461368    0.511879    -1.07352  0.00103399
160     0.45241    0.503761    -2.14393  0.000997193
170    0.441424    0.493805    -2.19506  0.00103264
180    0.431757    0.485045     -1.5343  0.000844695
190     0.42453    0.478495    -2.75764  0.000891322
200    0.413931     0.46889    -2.85885  0.00099382
210    0.404654    0.460483    -4.03042  0.000894974
220    0.396031    0.452669    -4.89648  0.000877169
230     0.38711    0.444585     -1.9447  0.000721602
240    0.381599     0.43959    -1.89427  0.000742955
250    0.372251    0.431119    -3.88013  0.000817476
260     0.36525    0.424774    -2.91356  0.000754453
270    0.357162    0.417445    -2.91326  0.000719279
280    0.350864    0.411737   -0.878262  0.000647397
290    0.344214    0.405711    -2.96453  0.000594999
300    0.338964    0.400953    -1.48944  0.000500077
310    0.334213    0.396648  -0.0643237  0.00056062
320    0.327752    0.390792  -0.0139434  0.000604233
330    0.322128    0.385696   -0.828975  0.00055158
340     0.31672    0.380795    0.544415  0.000524315
350    0.311642    0.376193    0.849182  0.000633554
360    0.304049    0.369313     1.05314  0.000654662
370    0.298549    0.364328    0.187926  0.000485051
380    0.294348    0.360521    0.238505  0.00042907
390    0.289967    0.356551    0.288686  0.000438534
400    0.285577    0.352573   -0.169807  0.000379381
410     0.28238    0.349675     1.40724  0.000320123
420    0.279175    0.346771   -0.680618  0.000418225
430    0.274015    0.342095      1.4065  0.000439076
440    0.270393    0.338813     1.04881   0.0003855
450    0.266305    0.335108   0.0817469  0.00041503
460    0.262093    0.331291    0.335984  0.000542545
470    0.255454    0.325275     1.71037  0.00042544
480    0.253584     0.32358     1.55674  0.000328532
490    0.248884     0.31932     1.40411  0.000407009
500    0.245444    0.316203   -0.378287  0.000355905
510    0.241765    0.312869    0.335289  0.000272762
520    0.239989    0.311259     1.09755  0.000319768
530     0.23537    0.307074     1.04688  0.000375382
540    0.232481    0.304456     1.50512  0.000347249
550    0.228425     0.30078     1.75901  0.000432169
560    0.223838    0.296623     1.40252  0.000357438
570    0.221276    0.294302     1.24984  0.000253493
580    0.218768    0.292028   0.0280855  0.000114128
590    0.218994    0.292233   0.0783168  8.24347e-05
600    0.217119    0.290534     1.19836  0.000234389
610    0.214306    0.287985     1.04504  0.000272828
620    0.211663     0.28559     1.55391  0.000217803
630     0.20995    0.284038    0.689243  0.000121628
640     0.20923    0.283385     3.03045  6.91466e-05
650    0.208567    0.282784    0.331859  0.000122159
660    0.206787    0.281171   0.0778696  0.000225231
670    0.204062    0.278702     1.19648  0.000243332
680     0.20192    0.276761    0.840185  0.000267464
690    0.198713    0.273854     1.50244  0.000282716
700    0.196266    0.271637     1.70614  0.000271552
710    0.193282    0.268933    0.432967  0.000260284
720     0.19106    0.266919    0.839738  0.000254977
730    0.188183    0.264311     1.85803  0.000214025
740     0.18678     0.26304       1.145  0.000143407
750    0.185314    0.261712     1.14431  0.000185263
760    0.183074    0.259682     1.29689  0.000191569
770    0.181483     0.25824    0.889571  0.000129557
780    0.180483    0.257334     1.04235  5.24431e-05
790    0.180434     0.25729     1.24566  9.43393e-05
800    0.178596    0.255624    0.278297  0.000234704
810     0.17574    0.253036    0.634389  0.000223222
820    0.174132    0.251578   -0.384501  0.000202843
830    0.171683    0.249359     1.04131  0.000221203
840    0.169708    0.247569    0.226127  0.000242691
850    0.166829    0.244961    0.379654  0.000129156
860    0.167125    0.245228    0.633146  7.25336e-05
870    0.165379    0.243646   -0.587961  0.000153765
880     0.16405    0.242442      1.1923  0.000226399
890    0.160851    0.239543  -0.0806779  0.000308163
900    0.157886    0.236856    0.429686  0.000157984
910    0.157691    0.236679   -0.131456  0.000209843
920    0.153689    0.233053    0.174206  0.00021916
930    0.153308    0.232707   0.0211764  8.96774e-05
940    0.151896    0.231428    0.275513  0.000144369
950     0.15042     0.23009   -0.945743  0.000181086
960    0.148274    0.228145   -0.538872  0.000129819
970    0.147824    0.227738   -0.183079  0.000111963
980    0.146035    0.226116    0.122782  0.000246067
990    0.142903    0.223278   -0.183178  0.000228249
1000     0.14147    0.221979    -1.91365  0.000189198
1010    0.139119    0.219849    -2.37245  0.000302576
1020    0.135418    0.216495    -1.25195  0.000260368
1030    0.133911     0.21513    -2.37259  8.65951e-05
1040    0.133686    0.214926    -1.20212  7.15375e-05
1050    0.132481    0.213833    -2.37309  0.000228102
1060    0.129124    0.210792    -0.94783  0.000237715
1070    0.127726    0.209525    -1.81284  0.000124585
1080    0.126633    0.208533    -0.59139  0.000112567
1090    0.125475    0.207484   -0.133643  0.000143636
1100     0.12376     0.20593    0.222996  0.000187119
1110    0.121733    0.204093  -0.0315406  7.32426e-05
1120    0.122295    0.204603    0.171522  7.97298e-05
1130    0.120138    0.202648   -0.744917  0.000120007
1140    0.119895    0.202428     0.37523  -4.67896e-07
1150    0.120147    0.202656     1.49418  7.40163e-05
1160    0.118415    0.201086  -0.0321369  3.67973e-05
1170    0.119411    0.201989    0.629169  2.45914e-05
1180    0.117923     0.20064   -0.337451  7.12018e-05
1190    0.117987    0.200699    0.781503  -3.13923e-05
1200    0.118551    0.201209    0.730974  4.6571e-05
1210    0.117056    0.199855     1.29058  0.00016214
1220    0.115308    0.198271     1.18937  4.36518e-05
1230    0.116183    0.199064    0.068922  5.01648e-05
1240    0.114305    0.197361    0.782398  8.14725e-05
1250    0.114554    0.197587      0.6795  8.17716e-05
1260    0.112669    0.195879    0.883556  7.86982e-05
1270     0.11298    0.196161     1.95213  3.52152e-06
1280    0.112599    0.195816     2.10481  4.44204e-05
1290    0.112091    0.195356     2.15549  7.92008e-05
1300    0.111015     0.19438      1.9017  6.7547e-06
1310    0.111956    0.195233     2.05329  -1.83925e-05
1320    0.111383    0.194713     2.15534  0.000108016
1330    0.109796    0.193275     1.95163  0.000143038
1340    0.108522    0.192121     1.85042  4.82678e-05
1350     0.10883    0.192401     2.86787  7.20881e-06
1360    0.108378     0.19199     1.59509  0.000121591
1370    0.106399    0.190197    0.831734  0.000147234
1380    0.105433    0.189322   0.0178955  4.29153e-06
1390    0.106313    0.190119     0.78026  -1.79134e-05
1400    0.105791    0.189646   -0.085301  0.000109673
1410    0.104119    0.188131    0.321668  8.42944e-05
1420    0.104105    0.188119   -0.187205  4.58285e-06
1430    0.104028    0.188048   -0.238032  -3.70696e-05
1440    0.104847    0.188791    -1.25628  2.3846e-05
1450    0.103551    0.187616   -0.849704  0.000139397
1460    0.102059    0.186264   0.0671323  0.000210449
1470   0.0993417    0.183802      1.1362  0.000210869
1480   0.0978415    0.182442     0.52468  0.000192097
1490   0.0954998     0.18032     0.88117  0.000186047
1500   0.0941205     0.17907     1.13531  4.76327e-05
1510   0.0945471    0.179457    0.320575  8.34323e-05
1520   0.0924519    0.177558    0.779068  5.4333e-05
1530   0.0934604    0.178472      2.0518  -4.67896e-07
1540   0.0924613    0.177566     1.44087  0.000158455
1550   0.0902913      0.1756     1.79716  0.000100267
1560   0.0904559    0.175749     2.10213  8.43801e-05
1570   0.0886037    0.174071     1.84789  0.000107259
1580   0.0883107    0.173805      2.0515  4.89052e-05
1590   0.0876256    0.173184      1.0338  1.30888e-05
1600    0.088049    0.173568   0.0655415  6.87536e-05
1610   0.0862506    0.171938    0.829497  9.49655e-05
1620   0.0861496    0.171847    0.370955  0.000118235
1630   0.0838859    0.169795     1.08374  0.000124947
1640   0.0836507    0.169582    0.574812  4.98213e-05
1650   0.0828894    0.168892    0.880077  9.92399e-05
1660   0.0816659    0.167783     1.08344  9.2864e-05
1670   0.0810321    0.167209      1.4907  0.000106311
1680   0.0795397    0.165857    0.828901  0.000109812
1690   0.0788359    0.165219     1.74519  2.09015e-05
1700   0.0791217    0.165478     1.03241  -2.14092e-06
1710   0.0788787    0.165258     1.89738  3.7571e-05
1720   0.0783703    0.164797    0.625193  7.08099e-05
1730   0.0774625    0.163974    0.370359  4.5456e-06
1740   0.0782793    0.164714     1.18425  1.46359e-05
1750   0.0771698    0.163709     1.13352  0.000151025
1760   0.0752588    0.161977     1.49011  0.00016467
1770   0.0738764    0.160724     1.03251  4.49844e-05
1780   0.0743591    0.161162     1.18499  7.19331e-05
1790   0.0724377    0.159421     1.18474  5.85876e-05
1800   0.0731874      0.1601    0.115524  -5.16184e-05
1810   0.0734701    0.160356    0.267709  -8.18782e-06
1820   0.0733512    0.160248    0.114828  0.000136121
1830   0.0707477    0.157889   0.0644976  0.000129579
1840   0.0707596      0.1579    0.777228  -7.91736e-06
1850    0.070906    0.158033  -0.0376049  -4.83602e-05
1860   0.0717268    0.158776    0.267063  7.30101e-05
1870   0.0694458    0.156709   -0.750584  0.000224995
1880   0.0672269    0.154698   -0.444574  0.000154529
1890   0.0663553    0.153909    0.216334  0.000104206
1900   0.0651428     0.15281   -0.801113  4.34197e-05
1910   0.0654869    0.153122   -0.699905  -7.29412e-06
1920   0.0652886    0.152942    0.114679  5.04337e-05
1930   0.0644782    0.152208    -1.31083  4.71205e-05
1940   0.0643462    0.152088     0.11453  1.32054e-05
1950   0.0642141    0.151968   -0.190784  0.000105341
1960   0.0622394    0.150179    0.318785  0.000102076
1970   0.0621726    0.150118    0.318735  -6.98268e-06
1980   0.0623791    0.150305    0.216782  -1.38318e-05
1990   0.0624492    0.150369  -0.0891779  -3.59602e-06
2000    0.062451     0.15037    0.419198  0.000119971
2010   0.0600498    0.148194    0.165109  0.000123559
2020   0.0599798    0.148131    0.114381  6.20687e-05
2030   0.0588084    0.147069   -0.038102  2.08136e-05
2040   0.0595635    0.147754   -0.242457  -5.14613e-05
2050   0.0598376    0.148002   -0.293334  -1.70793e-05
2060   0.0599051    0.148063   -0.700949  -6.55562e-05
2070   0.0611488     0.14919    -1.26115  1.74593e-05
2080   0.0595559    0.147747   -0.394741  5.89313e-05
2090   0.0599701    0.148122     0.36832  6.96309e-05
2100   0.0581633    0.146485    0.164612  0.000125284
2110   0.0574644    0.145852   -0.140553  1.77708e-05
2120   0.0578079    0.146163    0.164662  -6.51069e-06
2130   0.0575947     0.14597    0.470224  0.000115567
2140   0.0554966    0.144068    0.521251  0.000119236
2150   0.0552099    0.143808   0.0117811  6.36794e-05
2160    0.054223    0.142914    0.521499  3.22705e-05
2170   0.0545645    0.143224    0.266715  -2.36765e-05
2180   0.0546965    0.143343    0.368121  2.19071e-05
2190   0.0541264    0.142826   0.0634539  5.70823e-05
2200   0.0535549    0.142309    0.215837  -7.3042e-05
2210   0.0555872     0.14415    -0.34446  -4.48626e-05
2220   0.0544521    0.143122   -0.445618  3.60055e-05
2230   0.0548671    0.143498   -0.903862  -0.000129916
2240   0.0570504    0.145476   -0.395337  -0.0001266
2250   0.0573991    0.145792   -0.446364  5.01269e-05
2260   0.0560479    0.144568    0.164512  7.14388e-05
2270   0.0559703    0.144497    0.367923  5.39424e-05
2280    0.054969     0.14359    0.622558  0.000167854
2290   0.0526132    0.141455    0.826217  0.000182452
2300     0.05132    0.140283     1.13163  9.73951e-05
2310   0.0506653     0.13969    0.724014  0.000115547
2320   0.0490091    0.138189    0.316697  0.000172997
2330   0.0472054    0.136555     1.53885  8.75063e-05
2340   0.0472589    0.136603    0.825272  9.86153e-05
2350   0.0452331    0.134767     1.43635  0.000159762
2360   0.0440637    0.133707     1.28317  9.55345e-05
2370   0.0433224    0.133036       0.876  0.000149807
2380   0.0410675    0.130992     1.33419  0.000114057
2390   0.0410413    0.130968     1.33415  9.84948e-06
2400   0.0408706    0.130814     0.67274  1.70967e-05
2410   0.0406993    0.130659     1.23239  -9.50508e-07
2420   0.0408896    0.130831   -0.294974  3.89216e-05
2430   0.0399209    0.129953    0.824924  -4.08636e-05
2440   0.0417068    0.131572    0.417657  -5.16873e-05
2450   0.0409546     0.13089   0.0102403  8.62312e-05
2460   0.0399822    0.130009    0.621663  3.18117e-05
2470   0.0403184    0.130313    0.315703  -5.19028e-05
2480   0.0410203    0.130949    0.264378  2.83273e-05
2490   0.0397519      0.1298  -0.0917131  9.98918e-06
2500   0.0408205    0.130768    0.467589  -8.14721e-07
2510   0.0397682    0.129815     1.28227  8.3374e-05
2520    0.039153    0.129257    0.518815  4.69115e-05
2530   0.0388299    0.128964    0.111896  -3.01491e-05
2540    0.039756    0.129804    0.162325  -2.6466e-05
2550   0.0393593    0.129444   -0.347044  1.39248e-05
2560   0.0394775    0.129551    0.161878  3.98368e-05
2570   0.0385625    0.128722   -0.754312  5.46627e-05
2580   0.0383842    0.128561   0.0600736  8.81679e-05
2590   0.0367992    0.127124    0.212656  0.000129077
2600   0.0358027    0.126221    0.263831  7.7513e-05
2610   0.0352489    0.125719    0.518318  -2.63024e-05
2620   0.0363288    0.126698     1.12885  -2.25453e-05
2630   0.0356998    0.126128     0.67095  0.000130059
2640   0.0337276    0.124341    0.467689  0.000156447
2650   0.0325709    0.123292   0.0605209  5.23014e-05
2660   0.0326815    0.123393  0.00949459  4.87892e-05
2670   0.0315951    0.122408      0.1111  0.000120031
2680   0.0302809    0.121217    0.111398  4.15514e-05
2690   0.0307641    0.121655    -0.80504  4.55479e-05
2700     0.02937    0.120392   -0.245339  9.06897e-05
2710   0.0289503    0.120011  -0.0927074  0.000106073
2720   0.0272485    0.118469   -0.906845  0.000125142
2730   0.0264474    0.117743   -0.805289  0.000144439
2740   0.0243597    0.115851   -0.550653  0.00014853
2750   0.0234768    0.115051   -0.703286  3.53761e-05
2760   0.0236522     0.11521    -0.24529  4.3134e-05
2770   0.0226141    0.114269   -0.346945  7.73604e-05
2780    0.022105    0.113808   -0.449197  5.85902e-05
2790   0.0214423    0.113207    0.110703  0.000157784
2800   0.0189493    0.110948   -0.347244  0.000192427
2810   0.0175938     0.10972     1.07802  -4.76124e-05
2820   0.0199016    0.111811    0.924839  -9.33913e-05
2830   0.0194616    0.111412     1.12825  4.40565e-05
2840   0.0190205    0.111013    0.772406  -1.84858e-06
2850   0.0194986    0.111446     1.07722  -3.25208e-05
2860   0.0196709    0.111602      1.1282  -1.86218e-06
2870   0.0195358     0.11148   0.0592288  7.90039e-05
2880   0.0180908     0.11017    0.822886  0.000125422
2890   0.0170274    0.109206     1.38264  6.78612e-05
2900   0.0167336     0.10894    0.975518  3.32928e-05
2910   0.0163615    0.108603    0.975369  0.000122479
2920    0.014284     0.10672    0.924591  0.000142099
2930   0.0135195    0.106028    0.670105  4.54751e-05
2940   0.0133745    0.105896    0.262688  -3.60483e-05
2950   0.0142405    0.106681    0.415072  -6.335e-05
2960   0.0146415    0.107044    0.465552  1.4465e-05
2970   0.0139512    0.106419    0.618631  7.69419e-05
2980   0.0131027     0.10565    0.211662  8.49756e-05
2990   0.0122517    0.104879  0.00850027  -5.19179e-05
3000    0.014141    0.106591    0.771611  -8.71831e-05
3010   0.0139954    0.106459    0.567803  -5.22139e-05
3020   0.0151853    0.107537     1.22951  -2.86612e-05
3030   0.0145686    0.106978     1.48414  -3.28127e-05
3040   0.0158415    0.108132    0.720137  -4.06622e-05
3050   0.0153818    0.107715      1.0257  -9.28994e-06
3060   0.0160273      0.1083    0.516727  -2.50664e-05
3070   0.0158832     0.10817     1.17838  4.61431e-05
3080   0.0151045    0.107464     0.87262  4.2263e-05
3090   0.0150379    0.107404    0.872918  6.6652e-06
3100   0.0149712    0.107343     1.43257  2.26039e-05
3110   0.0145858    0.106994     1.02545  2.7156e-06
3120   0.0149169    0.107294    0.872521  -5.71078e-05
3130    0.015728    0.108029    0.719541  2.27219e-05
3140   0.0144624    0.106882     1.12701  -9.39397e-06
3150   0.0159158    0.108199    0.821345  -5.33316e-05
3160   0.0155291    0.107849    0.312621  -2.55119e-05
3170   0.0164261    0.108662     1.27959  -3.35346e-05
3180   0.0161997    0.108456     1.17788  -1.35804e-05
3190   0.0166977    0.108908     1.78826  3.88658e-05
3200   0.0154224    0.107752     2.19588  3.48113e-05
3210   0.0160015    0.108277     1.48325  -2.56283e-05
3220    0.015935    0.108217     1.73759  1.88117e-05
3230   0.0156252    0.107936     1.43197  4.7251e-05
3240     0.01499     0.10736    0.973679  8.79975e-05
3250   0.0138653    0.106341     1.48315  5.97391e-05
3260   0.0137952    0.106277    0.617736  -1.33617e-05
3270   0.0141325    0.106583    0.821146  1.92775e-05
3280   0.0134096    0.105928     1.07603  0.000113268
3290   0.0118671     0.10453    0.974425  4.39566e-05
3300   0.0125305    0.105131      1.3811  -5.82346e-05
3310   0.0130318    0.105586     1.17719  -5.0501e-06
3320   0.0126315    0.105223     1.02476  6.06579e-05
3330   0.0118187    0.104486    0.821295  5.66918e-05
3340   0.0114977    0.104195    0.413879  -2.55892e-05
3350   0.0123305     0.10495     1.02421  1.57275e-05
3360   0.0111831     0.10391    0.871676  6.52694e-05
3370   0.0110251    0.103767    0.362654  2.82542e-05
3380    0.010618    0.103398    0.820997  6.15105e-05
3390  0.00979487    0.102652    0.770319  4.08904e-05
3400  0.00980024    0.102657    0.668266  -8.37777e-05
3410   0.0114704    0.104171     1.02436  -7.55718e-05
3420   0.0113117    0.104027     0.61714  3.25989e-05
3430   0.0108184     0.10358    0.922851  -7.74907e-07
3440   0.0113272    0.104041     1.58421  -2.16379e-05
3450   0.0112512    0.103972    0.719193  -3.01328e-05
3460   0.0119298    0.104587    0.515286  5.80311e-05
3470   0.0100906     0.10292     1.07608  5.80151e-05
3480   0.0107695    0.103535    0.057588  -5.92368e-07
3490   0.0101024    0.102931  0.00636318  1.19579e-05
3500   0.0105304    0.103319  -0.0953917  1.63062e-05
3510   0.0097763    0.102635    0.362703  1.62672e-05
3520    0.010205    0.103024    0.158647  2.91237e-05
3530  0.00919383    0.102108  -0.0450114  9.27878e-05
3540  0.00834927    0.101342   -0.197345  4.2062e-05
3550  0.00835259    0.101345   0.0570912  8.18623e-06
3560  0.00818555    0.101194    0.311279  0.000127632
3570  0.00579994   0.0990319  -0.0445642  0.00013213
3580  0.00554295    0.098799    0.209375   0.0001541
3590  0.00271795   0.0962389    0.871427  0.000192949
3600  0.00168397   0.0953019    0.311329  5.63457e-05
3610  0.00159104   0.0952177    0.515186  -2.50811e-05
3620   0.0021856   0.0957565     0.61704  -1.21876e-05
3630  0.00183479   0.0954386     1.07538  8.25708e-05
3640  0.00053418   0.0942599    0.464209  4.38822e-05
3650  0.000957146   0.0946432     1.32927  3.11803e-05
3660  -8.9426e-05   0.0936948     1.12566  8.3155e-05
3670  -0.000705953   0.0931361     1.07479  3.1376e-05
3680  -0.000716945   0.0931261    0.820301  7.49901e-05
3690  -0.00220576   0.0917769    0.973083  0.000105584
3700  -0.00282862   0.0912125     1.12576  6.67459e-05
