Time   C(t)   
ps   
0           1           1  4.11608e-10   0.0301198
10    0.703882    0.884709    0.650642   0.0159458
20    0.681085    0.875833    0.618939  0.00177171
30    0.668448    0.870913     1.14139  0.00115386
40    0.658007    0.866848    0.912732  0.00110276
50    0.646393    0.862326    0.683016  0.000861374
60     0.64078    0.860141    0.781352    0.000566
70    0.635073    0.857919    0.191784  0.000728384
80    0.626212    0.854469    0.126685  0.000791755
90    0.619238    0.851753   -0.265316  0.000486898
100    0.616474    0.850677    0.551699  0.000566918
110      0.6079    0.847339  -0.0374848  0.00091233
120    0.598228    0.843573     1.27108  0.000631517
130    0.595269    0.842421   -0.103127  0.000520775
140    0.587812    0.839518    0.387753  0.00065493
150    0.582171    0.837322   -0.168866  0.000639662
160    0.575019    0.834537   0.0929374  0.000586584
170    0.570439    0.832754     1.13903  0.000600475
180    0.563009    0.829861    0.256596  0.000551409
190    0.559411     0.82846     1.43375  0.000335047
200    0.556309    0.827252    0.713058  0.00046562
210    0.550098    0.824835     1.00765  0.000479066
220    0.546727    0.823522      1.1383  0.000341567
230    0.543267    0.822175    0.647448  0.000413707
240    0.538453    0.820301    0.973935  0.000460842
250     0.53405    0.818586     1.17029  0.000394383
260    0.530565     0.81723    0.221731  0.000336179
270    0.527327    0.815969     0.41738  0.000252494
280    0.525515    0.815263     1.26763  0.000400984
290    0.519307    0.812846     1.75864  0.000397348
300    0.517569    0.812169     0.87512  0.000440717
310    0.510493    0.809414     1.82393  0.000547284
320    0.506623    0.807908     0.87528  0.000217718
330    0.506138    0.807719     1.07067  9.94533e-05
340    0.504634    0.807133     1.29937  0.000273874
350    0.500661    0.805586    0.874289  0.000465812
360    0.495318    0.803506    0.449275  0.000390044
370     0.49286    0.802549     1.07042  0.000352582
380    0.488266    0.800761       1.528  0.000481279
390    0.483234    0.798802     1.46283  0.000332706
400    0.481612     0.79817     1.75679  0.000457619
410    0.474082    0.795238     2.08395  0.000398335
420    0.473645    0.795068     1.98532  0.00015091
430    0.471064    0.794063    0.938686  0.00021549
440    0.469335     0.79339    0.905769  0.000190207
450     0.46726    0.792582     1.39604  0.000285223
460    0.463631    0.791169     0.87298  0.000393337
470    0.459393    0.789519     1.10183  0.000407024
480     0.45549       0.788     1.46184  0.000265558
490    0.454082    0.787451     1.55932  0.000179905
500    0.451892    0.786599      2.0827  0.000331542
510    0.447451     0.78487     2.08276  0.000236908
520    0.447154    0.784754       1.428  0.000172655
530    0.443998    0.783525     2.54047  0.000407039
540    0.439013    0.781585     2.34473  0.000333975
550    0.437318    0.780925     2.34415  0.000321835
560    0.432577    0.779078     1.52726  0.000117941
570    0.434959    0.780006     1.65638  9.65893e-06
580    0.432383    0.779003     1.91847  0.000440994
590    0.426139    0.776572     1.72259  0.00030645
600    0.426254    0.776617     2.53919  0.000333653
610    0.419466    0.773974     2.34351  0.000452116
620    0.417212    0.773096     2.93254  0.000103046
630    0.417405    0.773172     2.53935  0.000234894
640    0.412514    0.771267     1.82023  0.000423786
650     0.40893    0.769872     2.01683  0.000358838
660    0.405337    0.768473     2.76878  0.000249715
670    0.403935    0.767927     2.60544  5.67272e-05
680    0.404203    0.768031     2.93151  0.000290474
690    0.398126    0.765665     2.08181  0.000423051
700    0.395742    0.764737     2.73567  0.000168048
710    0.394765    0.764357     2.96408  0.000256926
720    0.390603    0.762737     2.01552  0.000314823
730    0.388469    0.761905     1.68821  0.000297876
740    0.384646    0.760417     2.37528  0.000129898
750    0.385871    0.760894     2.37432  0.000112697
760    0.382392    0.759539     3.06149  0.000370526
770     0.37846    0.758009     2.66904  0.000304544
780    0.376301    0.757168     1.32823  0.000202784
790    0.374404     0.75643     2.04739  0.000234506
800    0.371611    0.755342     2.27659  0.000221591
810    0.369973    0.754704     2.14556  0.00026679
820    0.366275    0.753265      3.3557  0.000312008
830    0.363732    0.752275     2.66863   0.0001202
840    0.363871    0.752329     2.96261  8.9182e-05
850    0.361949     0.75158     2.89684  0.000340596
860    0.357059    0.749676     2.66821  0.000309788
870    0.355753    0.749168     3.02777  0.000243178
880    0.352196    0.747783     1.91597  0.000207537
890    0.351602    0.747552      2.8312  0.000109001
900    0.350016    0.746934     3.22355  0.000325808
910    0.345086    0.745015     2.96216  0.000380546
920    0.342405    0.743971     2.66757  0.000164436
930    0.341797    0.743734     3.09233  5.62221e-05
940     0.34128    0.743533     3.38587  0.000242174
950    0.336954    0.741849     2.79774  0.000355966
960    0.334161    0.740761     3.97512  0.000243261
970    0.332089    0.739954     2.63411  0.000157432
980    0.331012    0.739535     2.99342  0.000244357
990    0.327202    0.738052     2.86255  0.000244777
1000    0.326117    0.737629     3.02589  0.000122243
1010    0.324757      0.7371      2.1099  0.000236693
1020    0.321383    0.735786     2.89473  0.000195964
1030    0.320837    0.735574     3.12352  0.000260645
1040     0.31617    0.733757     3.61447  0.000132646
1050    0.318185    0.734541      2.9266  0.000229697
1060    0.311576    0.731968      4.1375  0.000289457
1070    0.312395    0.732287     3.54806  5.13703e-05
1080    0.310549    0.731568     2.63258  0.000304559
1090    0.306304    0.729915     3.45049  0.000180639
1100    0.306936    0.730161     3.64655  -0.000132439
1110    0.308953    0.730947     3.18754  9.37074e-05
1120    0.305062    0.729432     3.25363  0.00021846
1130    0.304584    0.729246     3.77691  0.000325601
1140     0.29855    0.726896     4.43139  0.000173055
1150    0.301123    0.727898     3.74406  -0.000141563
1160    0.301381    0.727999     3.44928  0.000145994
1170    0.298203    0.726761     3.97266  0.000206596
1180    0.297249     0.72639     3.97294  0.000332904
1190    0.291545    0.724169     4.10448  0.000356656
1200    0.290116    0.723613     3.97307  9.17479e-05
1210     0.28971    0.723454     4.59412  0.000115407
1220    0.287808    0.722714     4.16923  0.000340053
1230    0.282909    0.720807     3.77726  0.000261028
1240    0.282587    0.720681     3.48174  7.44089e-05
1250    0.281421    0.720227      3.8089  0.000135562
1260    0.279876    0.719626     4.13555  0.000135808
1270    0.278704     0.71917     3.80842  0.000211456
1280    0.275647    0.717979     3.80798  0.000178848
1290    0.275127    0.717777     4.20055  0.000108619
1300    0.273474    0.717133     4.88753  0.000151338
1310    0.272101    0.716599     4.23318  0.000279313
1320    0.267888    0.714958     4.49569  0.000180402
1330    0.268493    0.715194     4.49479  0.000138502
1340    0.265118     0.71388     4.56044  0.000299837
1350    0.262496    0.712859     4.52777  0.000186571
1360    0.261387    0.712427     4.62544  0.000201359
1370    0.258469    0.711291     4.33139  0.000354038
1380    0.254306     0.70967     4.88731  0.000350027
1390    0.251468    0.708565     4.69143  -6.85006e-06
1400    0.254443    0.709724     4.85388  0.000117636
1410    0.249115    0.707649     4.88699  0.00032782
1420    0.247887    0.707171     5.31191  0.000132546
1430    0.246465    0.706617     4.49393  8.97117e-05
1440    0.246092    0.706472     4.65698  0.000118791
1450    0.244089    0.705692     4.23181  0.000258287
1460    0.240927    0.704461     4.26489  0.000143401
1470    0.241221    0.704576     3.74077  1.39005e-05
1480    0.240649    0.704353     4.95074  0.000414019
1490     0.23294    0.701352     4.19985  0.000260124
1500    0.235446    0.702327     3.93718  1.97254e-05
1510    0.232546    0.701198      4.0678  0.00021781
1520     0.23109    0.700631     5.17998  0.000213562
1530    0.228275    0.699535     5.47451  0.000315803
1540    0.224774    0.698172     5.11523  -2.33002e-05
1550    0.228741    0.699717     4.81863  -8.60833e-05
1560    0.226496    0.698843     5.17912  0.000244256
1570    0.223855    0.697815     4.29569  0.00017656
1580    0.222964    0.697468       5.113  0.000284397
1590    0.218168      0.6956     5.27752  0.000192083
1600    0.219123    0.695972     5.40785  4.12814e-05
1610    0.217342    0.695279     4.19736  0.000144036
1620    0.216242     0.69485     5.21069  0.000242481
1630    0.212492     0.69339     4.55686  0.000296836
1640    0.210305    0.692539     5.37474  0.000140414
1650    0.209684    0.692297      4.7859  0.000180233
1660    0.206701    0.691136     4.52429  0.000155862
1670    0.206567    0.691083     4.26236  0.000156429
1680    0.203572    0.689917     3.93508  0.000146799
1690    0.203631     0.68994     4.58891  -1.58377e-05
1700    0.203889    0.690041     4.71962  0.000315689
1710    0.197317    0.687482     4.65452  0.000553868
1720    0.192811    0.685728     4.00085  8.4085e-05
1730    0.195635    0.686827     4.49077  -3.44224e-05
1740      0.1935    0.685996     4.06515  0.000268476
1750    0.190266    0.684737     4.42554  0.00016951
1760     0.19011    0.684676     4.71972  -4.31761e-06
1770    0.190352     0.68477     4.45766  8.54708e-05
1780      0.1884     0.68401     4.09806  8.05564e-05
1790    0.188741    0.684143     3.60709  3.58768e-05
1800    0.187683    0.683731     4.09755  0.000206175
1810    0.184617    0.682538     4.26198  0.000131351
1820    0.185056    0.682708     3.96678  0.000126874
1830     0.18208     0.68155     4.29413  8.17128e-05
1840    0.183421    0.682072     3.99893  4.18782e-05
1850    0.181242    0.681224     3.99963  1.15886e-05
1860     0.18319    0.681982     4.42446  -0.000159673
1870    0.184436    0.682467     4.22759  0.000148009
1880    0.180229    0.680829     4.29365  0.000416124
1890    0.176113    0.679227     3.73789  0.000179124
1900    0.176647    0.679434     4.32654  0.000129155
1910     0.17353    0.678221      4.2281  0.000129247
1920    0.174062    0.678428     4.22804  0.000185715
1930    0.169816    0.676775     4.06441  0.000185876
1940    0.170345    0.676981     3.60635  6.94186e-05
1950    0.168428    0.676234     3.93341  0.000212321
1960    0.166098    0.675327     3.73687  0.000105541
1970    0.166317    0.675412     4.19442  7.52747e-05
1980    0.164593    0.674741     4.42394  0.000167504
1990    0.162967    0.674108     4.26016  0.000162812
2000    0.161336    0.673473     5.20852  0.000117061
2010    0.160626    0.673197     4.22692  0.00029731
2020     0.15539    0.671158     4.26067  0.000344064
2030    0.153744    0.670517     4.65261  6.1734e-05
2040    0.154155    0.670678     5.27391  2.58878e-05
2050    0.153227    0.670316     5.73149  0.000144701
2060    0.151261    0.669551     4.88108  8.80957e-05
2070    0.151465     0.66963     4.16118  0.000160959
2080    0.148042    0.668297     4.22673  0.000353028
2090    0.144404    0.666881      3.7687  9.42811e-05
2100    0.146157    0.667563     5.24029  5.84885e-05
2110    0.143234    0.666425     4.78287  0.000126017
2120    0.143636    0.666582     4.65158  3.2685e-05
2130    0.142581    0.666171      4.0957  2.22288e-05
2140    0.143192    0.666409     4.58594  3.28608e-05
2150    0.141923    0.665915     3.93143  0.000126997
2160    0.140652     0.66542     4.58549  0.000158763
2170    0.138748    0.664679     4.55303  0.000127655
2180    0.138099    0.664426     3.76752  4.40441e-05
2190    0.137867    0.664336     4.06195  0.000222992
2200    0.133639     0.66269     4.58578  0.000175932
2210    0.134349    0.662966     4.45443  2.90416e-05
2220    0.133058    0.662463     5.17407  6.58982e-05
2230    0.133031    0.662453      3.5711  0.000219486
2240    0.128668    0.660754     4.71627  0.000240973
2250    0.128211    0.660576     4.91221  0.000157064
2260    0.125527    0.659531     4.22577  0.000146691
2270    0.125277    0.659434     4.42148  8.34573e-05
2280    0.123858    0.658881     4.61765  7.29401e-05
2290    0.123819    0.658866     4.32344  -8.65962e-05
2300     0.12559    0.659556     4.74807  0.000206696
2310    0.119685    0.657257     3.99641  0.000276153
2320    0.120067    0.657405     3.76749  4.1962e-05
2330    0.118845     0.65693     3.96355  0.000133036
2340    0.117406    0.656369     3.80002  0.000101216
2350    0.116821    0.656142     4.35556  5.31685e-05
2360    0.116343    0.655955     3.89778  4.79404e-05
2370    0.115862    0.655768     4.25722  0.000279536
2380    0.110752    0.653779     4.38908  4.8193e-05
2390    0.114898    0.655393      4.5513  -0.000226322
2400    0.115278    0.655541     4.19135  0.000145735
2410    0.111984    0.654258     4.15952  0.000108013
2420    0.113118      0.6547      4.4203  9.77255e-05
2430    0.110029    0.653497     3.79951  1.08697e-05
2440    0.112901    0.654615      4.8458  4.93567e-05
2450    0.109042    0.653113      5.0417  0.000261219
2460    0.107676    0.652581     4.38799  2.78395e-05
2470    0.108485    0.652896     5.10738   -1.56e-05
2480    0.107988    0.652703     4.84554  0.000126246
2490     0.10596    0.651913     5.20539  0.000208571
2500    0.103817    0.651079     5.85961  5.57709e-05
2510    0.104845    0.651479     5.43405  -3.70942e-05
2520    0.104559    0.651367     5.40095  2.31091e-05
2530    0.104383    0.651299     5.46656  6.69025e-06
2540    0.104425    0.651315     4.84503  -4.27142e-06
2550    0.104468    0.651332     4.94292  4.53226e-05
2560    0.103519    0.650962     4.55053  5.08722e-05
2570    0.103451    0.650936     4.84471  -8.71394e-05
2580    0.105261    0.651641     4.90952  -8.16662e-05
2590    0.105084    0.651572     4.71333  0.000211763
2600    0.101026    0.649992      5.1387  0.00033419
2610   0.0984002     0.64897      4.8776  0.000218483
2620   0.0966564    0.648291     4.48527  -3.54424e-06
2630   0.0984711    0.648997     5.40018  6.35482e-05
2640   0.0953854    0.647796     5.26953  0.000191823
2650   0.0946347    0.647504     5.04103  0.000147802
2660   0.0924294    0.646645     4.64871  -2.5421e-05
2670   0.0951431    0.647702      4.2554  -0.000198857
2680   0.0964065    0.648193     4.54986  1.37325e-05
2690   0.0948684    0.647595     5.23649  0.000148406
2700   0.0934384    0.647038     4.48464  4.75422e-05
2710   0.0939176    0.647224     4.48435  1.40231e-05
2720   0.0931579    0.646929     4.87673  0.000155066
2730   0.0908163    0.646017     4.64772  0.000144043
2740   0.0902771    0.645807     4.94244  -2.54922e-06
2750   0.0908672    0.646037     5.10536  0.00012219
2760   0.0878333    0.644856     4.68044   0.0002698
2770   0.0854713    0.643936     4.87683  2.05982e-05
2780   0.0874213    0.644695     5.17088  2.09507e-05
2790   0.0850522    0.643773     5.17065  0.000151759
2800   0.0843861    0.643513     4.84337  6.67017e-05
2810   0.0837182    0.643253     4.87622  0.000203978
2820   0.0803066    0.641925     5.23655  0.000284474
2830   0.0780287    0.641038     5.72702  -1.25382e-05
2840   0.0805573    0.642023     5.49775  2.21521e-05
2850   0.0775857    0.640866     4.71285  0.000136741
2860   0.0778225    0.640958     5.03915  4.52995e-05
2870   0.0766797    0.640513     4.18896  0.000177846
2880   0.0742656    0.639573     4.87603  4.5583e-05
2890    0.075768    0.640158     4.64698  4.02093e-05
2900   0.0734614     0.63926     3.92696  0.00012682
2910   0.0732316    0.639171     5.26803  9.25358e-05
2920   0.0716107    0.638539     5.23537  0.000179744
2930   0.0696368    0.637771     5.13716  0.00029065
2940   0.0657977    0.636276     4.54874  0.00012258
2950   0.0671852    0.636816     4.51532  -4.89876e-06
2960   0.0658957    0.636314     5.43131  7.65916e-05
2970   0.0656533     0.63622     4.94055  6.52168e-05
2980   0.0645913    0.635807     4.48259  5.94758e-05
2990   0.0644638    0.635757      5.1038  6.55763e-05
3000   0.0632798    0.635296     4.84184  0.000142022
3010   0.0616234    0.634651     5.29989  7.1815e-05
3020   0.0618435    0.634737     4.22018  5.45233e-05
3030   0.0605329    0.634226     4.71116  0.000260874
3040    0.056626    0.632705     4.77686  0.000243682
3050   0.0556592    0.632329     4.48202  0.000161878
3060   0.0533885    0.631445     4.74411  0.000191861
3070    0.051822    0.630835      4.4166  0.000127203
3080   0.0508444    0.630454     4.93995  3.85942e-05
3090   0.0510501    0.630534     4.44926  3.88237e-05
3100   0.0500679    0.630152     4.57978  5.07265e-05
3110   0.0500356    0.630139     4.87399  0.000176154
3120   0.0465448     0.62878     4.44929  0.000188363
3130   0.0462683    0.628673     4.74363  -1.41686e-05
3140   0.0468282    0.628891     3.85982  -1.4138e-05
3150   0.0465511    0.628783     4.51382  0.000273612
3160    0.041356     0.62676     4.28541  0.000129913
3170   0.0439528    0.627771     4.15403  -0.000103696
3180   0.0434299    0.627567     4.64459  0.00015476
3190   0.0408577    0.626566     4.12137  0.000203343
3200    0.039363    0.625984     4.05595  -1.94885e-05
3210   0.0412474    0.626718     4.25176  0.000156122
3220   0.0362406    0.624768     4.21913  0.000380255
3230   0.0336423    0.623757     4.74264  5.39185e-05
3240   0.0351622    0.624349     3.40067  -3.07253e-05
3250   0.0342568    0.623996     3.66193  0.000248964
3260   0.0301829     0.62241     4.12012  0.000261694
3270    0.029023    0.621958     3.30263  0.000201621
3280   0.0261505     0.62084     3.13916  8.59222e-05
3290   0.0273045    0.621289      3.1716  9.8736e-05
3300   0.0241758    0.620071     3.30256  0.00014167
3310   0.0244711    0.620186     4.47962  1.33418e-05
3320    0.023909    0.619967     3.36705  5.6391e-05
3330   0.0233433    0.619747     4.15233  8.12453e-05
3340   0.0222841    0.619335     3.66187  0.000130747
3350   0.0207284    0.618729     4.05441  0.000322601
3360    0.015832    0.616822     3.53145  0.000156313
3370   0.0176021    0.617512     4.02204  -0.000133977
3380   0.0185116    0.617866     3.53071  2.06673e-05
3390   0.0171887    0.617351     3.10551  0.000169778
3400    0.015116    0.616544     3.30173  8.93209e-05
3410   0.0154023    0.616655     2.87649  5.85802e-05
3420   0.0139444    0.616088     3.04022  5.23724e-05
3430   0.0143549    0.616247     3.10554  4.01863e-05
3440   0.0131407    0.615775       2.909  1.51254e-05
3450   0.0140524     0.61613     3.20311  0.000203519
3460  0.00907033     0.61419     2.81088  0.000247663
3470  0.00909911    0.614201     2.90915  0.000141823
3480  0.00623386    0.613086     3.26913  3.42922e-06
3490  0.00903052    0.614174     2.45103  -0.000204384
3500   0.0103215    0.614677      2.9415  -6.6097e-05
3510   0.0103525    0.614689     2.64722  2.22594e-05
3520  0.00987635    0.614504     2.74508  0.000174447
3530  0.00686352    0.613331     2.51619  7.95078e-05
3540   0.0082862    0.613885     2.48309  -5.3444e-05
3550   0.0079324    0.613747     2.71188  0.000143737
3560  0.00541146    0.612765     2.38545  -2.82452e-05
3570  0.00849731    0.613967     2.09041  -0.000130143
3580  0.00801431    0.613779     1.95967  8.0388e-05
3590  0.00688955    0.613341      2.4828  0.000202348
3600  0.00396735    0.612203     2.58123  3.81197e-06
3610  0.00681331    0.613311        2.09  -8.55778e-06
3620  0.00413851     0.61227     1.82861  0.000113356
3630  0.00454619    0.612428     2.02493  8.81421e-05
3640  0.00237566    0.611583     2.28667  1.71385e-05
3650  0.00420342    0.612295     3.23487  -9.89503e-05
3660  0.00435467    0.612354     2.74419  8.85248e-05
3670  0.00243292    0.611606     3.03836  0.000192519
3680  0.000504281    0.610855     2.67874  -5.39109e-05
3690  0.00351114    0.612025     2.51511  -0.000203465
3700  0.00457359    0.612439     2.74355  -1.51024e-05
3710  0.00381319    0.612143     2.61277  -0.00011331
3720  0.00683979    0.613321     3.20122  0.000128688
3730  0.00123942    0.611141     2.48216  0.000266034
3740  0.00151912     0.61125     2.67803  5.07649e-05
3750  0.000224125    0.610746     2.25295  0.000123123
3760  -0.000943346    0.610291     1.92586  9.72127e-05
3770  -0.00172013    0.609989     2.31805  -2.11801e-05
3780  -0.000519744    0.610456     2.18696  9.77791e-05
3790  -0.00367571    0.609227     1.76179  1.17727e-05
3800  -0.000755197    0.610364     2.87359  -8.04875e-05
3810  -0.00206596    0.609854     2.15392  0.000144594
3820  -0.00364708    0.609238     2.64473  0.000244785
3830  -0.00696165    0.607948     1.89266  8.56161e-05
3840  -0.00535941    0.608572     1.59784  -0.000220527
3850  -0.00255111    0.609665     1.56492  5.27475e-05
3860  -0.00641435    0.608161     1.79407  0.000199585
3870  -0.0065428    0.608111     1.69573  6.65027e-05
3880  -0.00774441    0.607643     1.49915  0.000301627
3890  -0.0125753    0.605762     1.46723  0.000268697
3900  -0.0131184    0.605551     1.53226  7.2259e-06
3910  -0.0127199    0.605706     1.46678  5.45156e-05
3920  -0.0142087    0.605126     2.25164  0.000115415
3930  -0.0150282    0.604807     1.95718  -3.30676e-05
3940  -0.0135473    0.605384     1.95683  -0.000127946
3950  -0.0124693    0.605804     2.31678  -1.97258e-05
3960  -0.0131528    0.605537     2.25117  1.40767e-05
3970  -0.0127508    0.605694     2.44739  0.000136871
3980  -0.0158902    0.604472     1.89173  0.000150664
3990  -0.0157641    0.604521       1.891  8.99409e-05
4000   -0.017689    0.603771     2.41451  0.00010375
4010  -0.0178391    0.603713     2.31601  -0.000101545
4020  -0.0156581    0.604562     1.92302  0.000228144
4030  -0.0224019    0.601936     2.21822  0.000255654
4040  -0.0207712    0.602571     1.43294  -0.000156398
4050   -0.019274    0.603154     2.25027  3.6405e-05
4060  -0.0214993    0.602288     1.66128  0.000167604
4070  -0.0226261    0.601849     2.11947  0.000126752
4080  -0.0240343    0.601301     2.77378  1.60974e-05
4090   -0.022948    0.601724     1.79186  0.00019712
4100  -0.0279767    0.599766     2.05433  0.000155464
4110  -0.0260573    0.600513     1.89045  -0.000143416
4120  -0.0251084    0.600883     1.72644  8.66647e-05
4130  -0.0277906    0.599838     2.21739  0.000282675
4140  -0.0307619    0.598682     1.66166  -3.19347e-05
4150  -0.0271519    0.600087     1.88949  6.68472e-05
4160  -0.0320989    0.598161     1.85757  0.000235201
4170  -0.0318559    0.598256     2.15162  9.54675e-05
4180  -0.0340082    0.597418     1.75949   6.736e-05
4190  -0.0332031    0.597731     2.18431  0.000223482
4200  -0.0384779    0.595677     2.15222  0.000103252
4210  -0.0352682    0.596927     1.56294  5.46612e-05
4220  -0.0395711    0.595252     1.98831   0.0002604
4230  -0.0404762    0.594899     2.15181  -0.000115867
4240  -0.0372537    0.596154      2.3473  0.000112392
4250   -0.042724    0.594024      2.3481  0.000119135
4260  -0.0396365    0.595226      2.5108  -0.000230478
4270  -0.0381144    0.595819     2.05299  -7.36138e-05
4280  -0.0381642      0.5958     2.34688  0.000141464
4290  -0.0409437    0.594717     2.08546  0.000148942
4300   -0.041143     0.59464     1.88914  6.3196e-05
4310  -0.0422076    0.594225     1.72552  8.49884e-05
4320  -0.0428428    0.593978      1.8894  -2.3178e-05
4330  -0.0417441    0.594406     1.88908  0.000150817
4340  -0.0458591    0.592804     2.28169  0.000354176
4350  -0.0488276    0.591648     2.11812  0.000108243
4360   -0.048024    0.591961     2.08502  -5.13237e-05
4370  -0.0478011    0.592047     2.11774  -4.44055e-07
4380  -0.0480151    0.591964     2.54263  -2.24432e-05
4390  -0.0473522    0.592222     2.60801  0.000102066
4400  -0.0500564    0.591169     2.64096  2.14098e-05
4410  -0.0477804    0.592055     2.80427  -0.000161825
4420  -0.0468199    0.592429     2.44416  9.52454e-05
4430  -0.0496853    0.591314      2.9353  0.000287038
4440  -0.0525607    0.590194     3.06591  0.000177218
4450  -0.0532297    0.589934     2.96812  1.51636e-05
4460   -0.052864    0.590076      3.2623  5.23953e-05
4470  -0.0542776    0.589526     2.67369  -4.41743e-05
4480  -0.0519805     0.59042     2.93498  4.53532e-05
4490  -0.0551847    0.589173     3.45849  0.000261288
4500  -0.0572062    0.588386     2.90261  8.26698e-06
4510    -0.05535    0.589108     3.42573  3.86171e-05
4520  -0.0579786    0.588085     3.03296  0.000135838
4530  -0.0580668    0.588051     2.83649  6.89369e-05
4540  -0.0593573    0.587548     2.60731  0.000159421
4550  -0.0612552    0.586809     2.67286  0.000167535
4560   -0.062708    0.586244     2.93485  7.75099e-05
4570  -0.0628054    0.586206     2.73789  0.000259542
4580  -0.0678989    0.584223     2.90197  0.000100818
4590  -0.0648217    0.585421      2.5418  -4.39361e-06
4600   -0.067811    0.584257     2.21512  0.000132033
4610  -0.0674624    0.584392     2.50917  -1.968e-05
4620  -0.0674174     0.58441     2.50904  0.000285775
4630  -0.0731779    0.582167     2.77103  0.000355178
4640   -0.074521    0.581644     2.54208  -0.000110823
4650  -0.0709614     0.58303     2.24701  -0.000133824
4660  -0.0718445    0.582686     2.41051  0.000157745
4670  -0.0741163    0.581802     2.50872  9.65238e-05
4680  -0.0737749    0.581935     2.70479  0.000158954
4690  -0.0772954    0.580564     2.05082  0.000135945
4700  -0.0764938    0.580876      2.9663  -5.70264e-05
4710  -0.0761549    0.581008     2.54061  0.000160294
4720  -0.0796997    0.579628       2.345  0.000152762
4730  -0.0792101    0.579819     2.57356  0.000153695
4740  -0.0827736    0.578431     2.31202  5.23262e-05
4750  -0.0802567    0.579411     2.21346  0.000100083
4760  -0.0847753    0.577652     2.60616  0.00013113
4770  -0.0828793     0.57839     2.80207  0.000124417
4780  -0.0872636    0.576683     2.31151  0.000226674
4790  -0.0874127    0.576625     2.50783  0.000235813
4800  -0.0919799    0.574847     2.34455  7.06501e-06
4810   -0.087554     0.57657     2.53994  -0.00011083
4820  -0.0897633     0.57571     2.73652  0.000213439
4830  -0.0918228    0.574908     2.44186  6.32647e-05
4840  -0.0910286    0.575217     2.57213  3.98498e-05
4850  -0.0926198    0.574598     3.19378  0.00028716
4860  -0.0967718    0.572981     2.93236  0.000192106
4870  -0.0964619    0.573102     2.86643   0.0001372
4880  -0.0995158    0.571913     2.44183  7.32005e-05
4890   -0.097926    0.572532     2.67059  8.1965e-05
4900   -0.101155    0.571275     3.52119  0.000154354
4910   -0.101013     0.57133     2.83374  3.41773e-05
4920   -0.101839    0.571008     2.96464  0.000220282
4930   -0.105419    0.569615     3.12836  5.06427e-05
4940   -0.102852    0.570614     2.66995  0.000213952
4950   -0.109698    0.567949     2.96502  0.000270841
4960   -0.108268    0.568505     2.60495  -0.000110616
4970   -0.107485     0.56881     3.22606  0.000174883
4980   -0.111766    0.567143     3.29177  6.86768e-05
4990   -0.108859    0.568275     3.32366  -3.75297e-05
