Time   Number   
ps   
0          22          50
10          24          58
20          27          45
30          27          51
40          33          53
50          28          52
60          28          46
70          29          51
80          30          44
90          29          53
100          25          43
110          26          42
120          31          53
130          23          47
140          29          45
150          34          46
160          30          46
170          29          45
180          30          52
190          29          37
200          29          47
210          29          43
220          33          49
230          30          44
240          29          41
250          34          42
260          28          38
270          27          43
280          31          41
290          30          48
300          31          45
310          33          47
320          32          52
330          31          41
340          31          59
350          34          42
360          28          42
370          30          42
380          29          45
390          30          40
400          32          46
410          30          50
420          29          45
430          32          42
440          29          43
450          29          47
460          32          44
470          30          42
480          30          40
490          33          47
500          32          46
510          31          43
520          28          36
530          30          52
540          30          42
550          32          48
560          28          46
570          30          46
580          27          43
590          31          51
600          30          46
610          29          49
620          31          47
630          31          47
640          28          46
650          30          40
660          26          46
670          31          43
680          32          48
690          29          45
700          31          47
710          30          40
720          29          45
730          27          51
740          32          46
750          29          43
760          27          47
770          31          51
780          30          42
790          32          56
800          30          46
810          28          50
820          30          50
830          28          46
840          31          49
850          32          48
860          31          51
870          28          46
880          29          43
890          29          45
900          34          48
910          30          44
920          28          46
930          27          47
940          30          50
950          28          38
960          24          50
970          28          42
980          29          45
990          27          47
1000          31          45
1010          28          46
1020          29          53
1030          29          49
1040          30          50
1050          25          41
1060          27          43
1070          27          51
1080          27          45
1090          30          50
1100          31          51
1110          24          52
1120          28          56
1130          26          54
1140          23          51
1150          25          49
1160          29          45
1170          26          48
1180          29          47
1190          28          44
1200          32          40
1210          30          48
1220          29          41
1230          27          47
1240          29          49
1250          32          36
1260          28          40
1270          30          44
1280          29          47
1290          28          58
1300          27          47
1310          32          48
1320          27          43
1330          28          44
1340          27          47
1350          25          47
1360          30          48
1370          28          38
1380          30          46
1390          26          44
1400          29          47
1410          28          38
1420          26          48
1430          30          40
1440          29          43
1450          24          44
1460          28          42
1470          28          48
1480          27          39
1490          30          46
1500          25          49
1510          28          42
1520          27          41
1530          29          43
1540          29          41
1550          29          37
1560          26          40
1570          27          47
1580          29          39
1590          31          41
1600          29          55
1610          31          39
1620          30          42
1630          29          43
1640          31          39
1650          28          46
1660          29          39
1670          31          37
1680          32          42
1690          28          38
1700          31          47
1710          29          41
1720          30          46
1730          26          46
1740          32          46
1750          32          42
1760          30          42
1770          28          46
1780          30          46
1790          29          55
1800          26          52
1810          29          47
1820          30          52
1830          30          48
1840          30          40
1850          31          43
1860          30          44
1870          28          40
1880          31          47
1890          29          47
1900          31          47
1910          32          40
1920          32          42
1930          32          42
1940          28          48
1950          28          38
1960          29          41
1970          29          43
1980          30          46
1990          29          45
2000          28          42
2010          27          41
2020          30          44
2030          31          37
2040          30          58
2050          31          49
2060          29          41
2070          30          44
2080          30          40
2090          29          41
2100          29          37
2110          28          38
2120          28          40
2130          30          36
2140          26          40
2150          27          43
2160          28          34
2170          26          48
2180          28          50
2190          28          38
2200          27          43
2210          31          45
2220          32          46
2230          32          46
2240          30          38
2250          31          45
2260          30          42
2270          31          41
2280          28          46
2290          27          45
2300          29          49
2310          31          33
2320          29          37
2330          31          43
2340          32          48
2350          31          41
2360          29          45
2370          29          47
2380          30          44
2390          31          41
2400          31          39
2410          31          45
2420          29          41
2430          31          41
2440          26          44
2450          32          42
2460          30          46
2470          32          44
2480          32          36
2490          31          49
2500          33          45
2510          32          38
2520          28          42
2530          31          33
2540          30          50
2550          34          38
2560          33          43
2570          33          47
2580          33          39
2590          33          43
2600          32          42
2610          31          41
2620          30          42
2630          33          35
2640          33          33
2650          31          41
2660          33          45
2670          34          44
2680          29          39
2690          35          43
2700          35          43
2710          31          45
2720          33          41
2730          28          42
2740          29          45
2750          29          49
2760          32          48
2770          30          42
2780          32          44
2790          34          48
2800          31          49
2810          28          48
2820          35          41
2830          31          39
2840          34          44
2850          33          43
2860          29          45
2870          33          47
2880          32          46
2890          33          45
2900          36          46
2910          29          49
2920          28          44
2930          31          43
2940          29          49
2950          29          35
2960          31          45
2970          31          45
2980          30          42
2990          30          48
3000          30          52
3010          30          42
3020          28          42
3030          32          46
3040          28          42
3050          28          38
3060          32          40
3070          27          49
3080          30          42
3090          29          47
3100          29          37
3110          32          44
3120          33          43
3130          34          48
3140          31          41
3150          31          53
3160          28          52
3170          32          46
3180          30          42
3190          33          45
3200          29          43
3210          33          43
3220          29          47
3230          31          39
3240          31          41
3250          31          47
3260          31          45
3270          28          46
3280          31          43
3290          28          44
3300          30          50
3310          27          37
3320          30          44
3330          32          48
3340          30          46
3350          32          46
3360          29          43
3370          29          43
3380          33          47
3390          34          52
3400          30          50
3410          31          45
3420          29          41
3430          29          49
3440          31          53
3450          30          48
3460          26          46
3470          30          40
3480          27          49
3490          31          45
3500          26          44
3510          29          43
3520          27          47
3530          28          44
3540          32          44
3550          31          45
3560          31          51
3570          34          50
3580          30          48
3590          31          49
3600          27          47
3610          27          47
3620          26          42
3630          31          51
3640          31          45
3650          33          49
3660          33          43
3670          32          50
3680          29          47
3690          28          44
3700          29          41
3710          32          46
3720          32          56
3730          30          44
3740          33          51
3750          36          44
3760          34          52
3770          32          46
3780          28          54
3790          32          46
3800          32          50
3810          30          52
3820          30          52
3830          28          50
3840          32          46
3850          28          46
3860          31          45
3870          33          49
3880          30          46
3890          32          50
3900          30          46
3910          27          41
3920          31          47
3930          30          50
3940          32          46
3950          25          45
3960          30          38
3970          33          49
3980          30          44
3990          31          45
4000          32          36
4010          28          50
4020          27          53
4030          32          44
4040          33          51
4050          32          38
4060          33          43
4070          33          37
4080          30          38
4090          31          41
4100          32          40
4110          28          48
4120          30          46
4130          30          44
4140          28          38
4150          30          38
4160          30          46
4170          31          49
4180          31          43
4190          28          44
4200          31          39
4210          31          45
4220          27          37
4230          29          43
4240          32          38
4250          30          38
4260          30          40
4270          31          43
4280          32          48
4290          30          38
4300          30          50
4310          30          50
4320          32          44
4330          31          43
4340          34          44
4350          34          40
4360          30          50
4370          32          42
4380          29          49
4390          32          52
4400          31          47
4410          28          38
4420          30          48
4430          33          39
4440          31          45
4450          31          41
4460          30          40
4470          26          38
4480          32          44
4490          29          39
4500          31          39
4510          30          36
4520          31          43
4530          30          54
4540          31          49
4550          31          35
4560          34          44
4570          33          45
4580          28          48
4590          28          50
4600          31          39
4610          32          48
4620          32          42
4630          28          38
4640          32          50
4650          30          52
4660          30          50
4670          30          46
4680          31          47
4690          30          50
4700          31          51
4710          29          45
4720          33          51
4730          31          43
4740          30          42
4750          29          43
4760          30          38
4770          30          36
4780          29          41
4790          30          44
4800          31          49
4810          32          48
4820          30          42
4830          29          39
4840          32          42
4850          31          41
4860          31          45
4870          33          47
4880          30          46
4890          30          44
4900          29          39
4910          33          37
4920          28          46
4930          33          37
4940          33          39
4950          26          48
4960          31          37
4970          29          41
4980          27          45
4990          28          50
5000          30          42
5010          34          52
5020          30          42
5030          28          38
5040          27          43
5050          30          50
5060          29          45
5070          33          43
5080          31          39
5090          31          45
5100          30          40
5110          30          42
5120          29          37
5130          33          43
5140          32          48
5150          28          48
5160          29          45
5170          32          38
5180          35          41
5190          31          39
5200          30          36
5210          32          38
5220          32          40
5230          29          45
5240          29          45
5250          29          41
5260          32          40
5270          31          45
5280          29          43
5290          30          42
5300          32          36
5310          29          37
5320          30          38
5330          28          44
5340          28          44
5350          31          39
5360          33          39
5370          32          36
5380          32          40
5390          31          39
5400          31          37
5410          28          48
5420          33          41
5430          30          42
5440          30          44
5450          31          43
5460          33          45
5470          33          37
5480          30          34
5490          30          44
5500          30          42
5510          32          44
5520          31          41
5530          28          34
5540          30          50
5550          30          40
5560          32          42
5570          30          40
5580          34          44
5590          29          37
5600          31          41
5610          32          42
5620          31          35
5630          30          42
5640          35          45
5650          29          43
5660          30          46
5670          27          41
5680          28          40
5690          27          47
5700          25          39
5710          25          39
5720          29          43
5730          29          35
5740          30          48
5750          29          43
5760          26          42
5770          28          34
5780          31          37
5790          28          46
5800          27          41
5810          29          39
5820          32          42
5830          29          45
5840          30          42
5850          29          41
5860          32          42
5870          33          39
5880          33          41
5890          33          41
5900          31          35
5910          29          39
5920          31          35
5930          32          38
5940          31          49
5950          32          38
5960          32          40
5970          28          40
5980          30          40
5990          29          43
6000          29          41
6010          26          42
6020          26          46
6030          27          43
6040          29          41
6050          29          51
6060          29          37
6070          30          56
6080          28          38
6090          27          39
6100          29          45
6110          25          41
6120          29          47
6130          30          46
6140          29          41
6150          23          45
6160          26          40
6170          30          44
6180          30          46
6190          25          43
6200          33          41
6210          33          35
6220          33          43
6230          30          46
6240          30          40
6250          30          36
6260          31          39
6270          31          43
6280          31          49
6290          35          45
6300          34          44
6310          29          41
6320          31          53
6330          29          53
6340          33          41
6350          32          48
6360          37          43
6370          34          44
6380          33          41
6390          33          43
6400          32          44
6410          35          39
6420          34          44
6430          36          44
6440          35          43
6450          34          46
6460          32          46
6470          32          42
6480          31          45
6490          32          44
6500          30          44
6510          31          43
6520          33          37
6530          30          54
6540          31          45
6550          33          45
6560          32          40
6570          33          43
6580          32          38
6590          32          38
6600          31          45
6610          30          52
6620          27          47
6630          33          49
6640          32          42
6650          32          44
6660          31          47
6670          33          47
6680          33          41
6690          31          43
6700          32          44
6710          33          47
6720          30          42
6730          34          44
6740          34          42
6750          34          46
6760          29          51
6770          32          44
6780          30          42
6790          30          48
6800          32          44
6810          29          49
6820          30          48
6830          32          52
6840          32          46
6850          31          45
6860          34          50
6870          31          49
6880          30          40
6890          34          48
6900          33          47
6910          32          50
6920          30          48
6930          28          54
6940          35          41
6950          33          47
6960          30          48
6970          32          40
6980          32          48
6990          32          52
7000          33          43
7010          31          47
7020          32          42
7030          34          36
7040          34          42
7050          33          39
7060          34          44
7070          34          48
7080          30          44
7090          29          43
7100          30          46
7110          24          54
7120          31          43
7130          32          44
7140          32          40
7150          30          48
7160          32          36
7170          32          46
7180          33          41
7190          33          45
7200          32          42
7210          33          41
7220          30          48
7230          34          46
7240          32          46
7250          35          51
7260          32          46
7270          30          52
7280          33          47
7290          32          44
7300          33          41
7310          31          45
7320          32          46
7330          31          53
7340          30          46
7350          34          44
7360          32          50
7370          33          49
7380          33          49
7390          32          56
7400          33          45
7410          29          45
7420          32          54
7430          32          56
7440          35          49
7450          33          43
7460          29          49
7470          32          50
7480          30          50
7490          30          42
7500          33          49
7510          34          48
7520          34          56
7530          30          50
7540          33          47
7550          33          45
7560          30          40
7570          32          44
7580          29          41
7590          31          41
7600          28          40
7610          29          41
7620          31          47
7630          32          50
7640          35          53
7650          35          51
7660          35          45
7670          32          50
7680          32          44
7690          30          42
7700          31          43
7710          32          44
7720          33          49
7730          31          53
7740          30          52
7750          28          56
7760          33          47
7770          30          42
7780          31          45
7790          32          38
7800          30          50
7810          33          45
7820          30          40
7830          31          53
7840          32          44
7850          34          54
7860          30          48
7870          33          47
7880          30          42
7890          31          49
7900          30          42
7910          35          47
7920          30          50
7930          32          52
7940          27          49
7950          36          50
7960          31          51
7970          32          50
7980          33          51
7990          33          53
8000          34          50
8010          33          51
8020          37          51
8030          30          54
8040          31          41
8050          32          48
8060          36          44
8070          33          45
8080          32          48
8090          31          43
8100          32          46
8110          32          44
8120          31          49
8130          34          44
8140          29          51
8150          33          51
8160          32          50
8170          33          43
8180          31          47
8190          30          50
8200          31          53
8210          32          54
8220          37          51
8230          34          48
8240          32          44
8250          32          44
8260          34          52
8270          30          46
8280          32          54
8290          32          50
8300          37          51
8310          33          53
8320          36          50
8330          36          50
8340          35          59
8350          31          49
8360          37          51
8370          35          49
8380          37          49
8390          30          56
8400          35          63
8410          35          41
8420          30          52
8430          31          45
8440          35          51
8450          38          54
8460          38          52
8470          37          59
8480          37          53
8490          37          53
8500          35          53
8510          38          58
8520          36          54
8530          34          48
8540          35          53
8550          36          50
8560          40          56
8570          37          51
8580          38          52
8590          41          55
8600          37          59
8610          39          53
8620          37          59
8630          36          54
8640          36          52
8650          36          62
8660          36          58
8670          40          52
8680          32          58
8690          38          50
8700          34          62
8710          37          53
8720          36          56
8730          37          55
8740          35          57
8750          37          55
8760          33          55
8770          37          51
8780          39          55
8790          37          51
8800          35          55
8810          39          57
8820          40          58
8830          36          56
8840          35          67
8850          36          54
8860          39          61
8870          37          61
8880          38          54
8890          35          63
8900          32          56
8910          35          59
8920          37          57
8930          40          60
8940          37          59
8950          36          56
8960          37          57
8970          37          55
8980          33          53
8990          34          52
9000          35          49
9010          37          49
9020          37          53
9030          35          51
9040          36          52
9050          36          54
9060          32          48
9070          34          54
9080          34          50
9090          37          49
9100          36          46
9110          36          52
9120          38          50
9130          36          56
9140          39          55
9150          36          54
9160          34          46
9170          35          45
9180          36          56
9190          38          52
9200          35          51
9210          36          48
9220          36          56
9230          35          47
9240          36          60
9250          35          53
9260          36          48
9270          33          51
9280          37          51
9290          33          47
9300          36          46
9310          38          48
9320          35          57
9330          36          48
9340          33          55
9350          36          60
9360          35          51
9370          36          48
9380          36          54
9390          34          46
9400          34          48
9410          36          44
9420          37          49
9430          36          46
9440          38          52
9450          36          52
9460          36          56
9470          34          56
9480          36          46
9490          36          52
9500          36          52
9510          34          62
9520          34          52
9530          31          45
9540          35          49
9550          33          57
9560          31          51
9570          36          44
9580          37          55
9590          35          49
9600          37          55
9610          39          53
9620          31          51
9630          37          51
9640          35          51
9650          35          55
9660          34          42
9670          34          44
9680          35          41
9690          31          53
9700          36          50
9710          33          55
9720          38          48
9730          37          55
9740          35          47
9750          37          53
9760          32          48
9770          36          46
9780          35          47
9790          36          48
9800          35          45
9810          36          48
9820          39          53
9830          31          43
9840          35          43
9850          32          56
9860          34          50
9870          37          49
9880          34          52
9890          36          42
9900          34          50
9910          32          52
9920          32          50
9930          33          49
9940          36          42
9950          32          44
9960          33          49
9970          36          52
9980          34          40
9990          37          49
10000          33          45
