Time   C(t)   
ps   
0           1           1  8.53045e-10   0.0674033
10    0.340247     0.85304   -0.154477   0.0346314
20    0.307373    0.845717   -0.867749  0.00185945
30    0.303058    0.844756   -0.385629  0.00102812
40     0.28681    0.841137    -1.01502  0.00118238
50     0.27941    0.839489    -1.18348  0.000472113
60    0.277368    0.839034     0.76931  0.000598334
70    0.267444    0.836823    -1.01547  0.000715242
80    0.263063    0.835847    -0.26039  0.000419775
90    0.259048    0.834953    -1.07919  0.00029504
100    0.257162    0.834533   -0.344908  0.000514407
110     0.24876    0.832661    -0.89056  0.00057575
120    0.245647    0.831968   0.0750751  0.000376814
130    0.241224    0.830983    0.410828  0.000251343
140    0.240621    0.830848    0.516126  0.000303402
150    0.235156    0.829631   -0.470392  0.000467525
160     0.23127    0.828765    0.284503  0.000360892
170    0.227938    0.828023  -0.0509627  0.000286651
180    0.225537    0.827488  -0.00917561  0.000104332
190    0.225851    0.827558   -0.513287  0.000306573
200    0.219406    0.826123   -0.891257  0.000194053
210     0.22197    0.826694   -0.198581  0.000364371
220    0.212118    0.824499   -0.197761  0.000632879
230    0.209313    0.823874    -1.47855  -0.000129271
240    0.214704    0.825075   0.0530848  -0.000133819
250    0.211989    0.824471   -0.030428  0.000375703
260    0.207189    0.823401    0.410069  -8.23893e-05
270    0.213637    0.824838   -0.199729  -9.14603e-05
280    0.209019    0.823809   -0.597476  0.000424431
290    0.205148    0.822947    0.116001  0.000230806
300    0.204403    0.822781   -0.031166  -0.000143841
310    0.208025    0.823588   -0.640411  0.000222269
320    0.199957     0.82179   -0.555873  0.000783785
330    0.192349    0.820096   -0.219854  0.00022314
340    0.195494    0.820796    0.850977  -0.00037676
350    0.199884    0.821774    0.199576  0.000157274
360    0.192349    0.820096    -0.13628  0.000314654
370    0.193591    0.820372    0.913647  -8.60825e-05
380    0.194071    0.820479    0.786871  0.000287212
390    0.187847    0.819093    0.430953  0.000110125
400    0.191868    0.819989    0.702456  -0.000239395
410    0.192635    0.820159    0.282309  3.85456e-05
420    0.191097    0.819817    0.765926  0.000384708
430    0.184941    0.818446    0.660895  0.000423722
440    0.182623    0.817929   0.0104774  3.45319e-05
450     0.18425    0.818292   -0.305458  -0.000259425
460    0.187811    0.819085   -0.494392  0.000179603
470    0.180658    0.817492    0.849439  0.000425956
480    0.179292    0.817187    0.534221  0.00041259
490    0.172406    0.815654  -0.0528695  4.50477e-05
500    0.178391    0.816987   -0.494966  -5.60053e-05
510    0.173526    0.815903    0.597589  0.000142262
520    0.175546    0.816353  0.00951387  8.46103e-05
530    0.171834    0.815526    0.555843  1.15596e-05
540    0.175315    0.816301   -0.222007  -0.000182895
550    0.175492    0.816341    -0.74696  0.000308954
560    0.169136    0.814925    0.450011  0.000572887
570    0.164034    0.813789   -0.515521  2.69324e-05
580    0.168597    0.814805   -0.621722  4.70147e-05
590    0.163094    0.813579   0.0931088  0.000193504
600    0.164727    0.813943     1.12125  8.16673e-05
610    0.161461    0.813215    0.155636  -3.13476e-05
620    0.165354    0.814083   -0.223135  -0.000173543
630    0.164932    0.813989  0.00795571  -1.67511e-05
640    0.165689    0.814157    0.301634  0.000249015
650    0.159951    0.812879   -0.852136  1.76474e-05
660    0.165336    0.814079    0.113357  -7.04549e-05
670     0.16136    0.813193   0.0289415  0.000664655
680    0.152043    0.811118  -0.0541408  0.000334629
690    0.154668    0.811702   -0.663283  -0.000149044
700    0.155024    0.811782    0.700816  2.38687e-05
710     0.15419    0.811596    0.595723  4.37498e-05
720    0.154149    0.811587   0.0294539  0.000113362
730    0.151923    0.811091   -0.369072  -9.52467e-05
740    0.156054    0.812011    0.595743  -0.000169756
750    0.155318    0.811847     0.17492  0.000168284
760    0.152688    0.811261    -1.10524  5.89892e-05
770    0.154139    0.811584   -0.202026  -0.000155373
780    0.155795    0.811953   -0.286564  8.40485e-05
790    0.152458     0.81121    0.259006  -8.10385e-05
800    0.157416    0.812314      1.1616  0.00046517
810    0.143154    0.809138    0.406194  0.000394876
820    0.149519    0.810555     1.03517  2.54206e-05
830    0.142646    0.809024    0.154364  0.000230886
840    0.144901    0.809527    0.868457  -0.000220878
850    0.147063    0.810008     1.35039  -0.000125752
860    0.147416    0.810087    0.972217  -1.00881e-05
870    0.147265    0.810053    0.699094  7.55258e-05
880    0.145905     0.80975    0.867083  0.000272723
890    0.141811    0.808838      1.4138  0.000389551
900    0.138114    0.808015    0.405148  -0.000227328
910    0.146357    0.809851    0.237303  5.67146e-05
920     0.13698    0.807762    0.615622  0.000314613
930    0.140065    0.808449    0.887823  -0.000156377
940    0.140108    0.808459     0.95076  0.000143105
950    0.137203    0.807812     1.16105  0.000260374
960      0.1349    0.807299    0.992629  -7.53656e-05
970     0.13871    0.808148    0.362951  -0.000345734
980    0.141815    0.808839    0.278188  -0.000167736
990    0.142065    0.808895    0.404328  0.000338095
1000    0.135053    0.807333    0.719075  0.000405004
1010    0.133965    0.807091    0.361967  0.000406141
1020     0.12693    0.805524     0.42476  0.000345185
1030    0.127061    0.805553     1.53783  9.98359e-05
1040    0.124933    0.805079     1.62249  4.84191e-05
1050    0.126093    0.805337    0.634353  -9.54207e-05
1060    0.126842    0.805504     1.05429  0.000151801
1070    0.123057    0.804661    0.424822  0.000332461
1080    0.120193    0.804023    0.677124  -3.35149e-05
1090    0.123727     0.80481    0.172603  0.000127076
1100    0.117651    0.803457    0.844949  0.000250982
1110    0.118707    0.803692     1.30604  -0.0001729
1120    0.121109    0.804227    0.402934  0.000112198
1130    0.116463    0.803192  -0.0585694  0.000324849
1140    0.114612     0.80278   -0.289618  0.000175041
1150    0.112963    0.802412    0.970003  -9.52471e-05
1160    0.116517    0.803204    0.802547  -0.000308981
1170    0.119142    0.803789   -0.814408  -2.79624e-05
1180    0.117076    0.803329    0.129954  3.45051e-05
1190    0.118452    0.803635   -0.226723  0.000170719
1200    0.113662    0.802568    0.822507  0.000353962
1210    0.111373    0.802058   -0.289516  -0.00033693
1220    0.120401    0.804069     1.62044  -0.000163856
1230     0.11465    0.802788     1.22167  0.000733238
1240    0.105736    0.800803     1.13791  0.000114099
1250    0.112368     0.80228    0.171085  6.79266e-05
1260    0.104377      0.8005    0.591848  0.00015152
1270    0.109338    0.801605     1.80925  -0.000253778
1280    0.109453    0.801631    0.612608  -0.00023882
1290    0.114114    0.802669   -0.354176  3.06785e-05
1300    0.108839    0.801494    0.990209  0.00053869
1310     0.10334    0.800269     1.15812  0.00029603
1320    0.102919    0.800175   -0.228035  -0.00012242
1330    0.105789    0.800814    0.380944  0.000127304
1340    0.100373    0.799608   -0.291218  0.000158973
1350    0.102609    0.800106    0.255398  0.000101201
1360   0.0983486    0.799157    0.528275  -2.14204e-07
1370    0.102613    0.800107    0.380698  -0.000127906
1380    0.100907    0.799727    0.695239  0.000154812
1390   0.0995171    0.799417  -0.0605378  -0.000214108
1400    0.105189    0.800681   -0.376125  8.58683e-05
1410   0.0977998    0.799035   -0.312204  0.000541325
1420   0.0943624    0.798269   -0.669455  1.10246e-05
1430   0.0975793    0.798986    0.715794  2.21562e-05
1440   0.0939193    0.798171     1.97622  0.000172606
1450   0.0941272    0.798217    0.884029  -9.99421e-06
1460   0.0941191    0.798215    0.757622  -9.08852e-05
1470   0.0959449    0.798622     1.15656  0.000130408
1480    0.091511    0.797634    0.800312  0.000260133
1490   0.0907422    0.797463      1.5135  -0.000204676
1500   0.0956045    0.798546    0.988405  0.000310132
1510   0.0845396    0.796081       1.598  5.48951e-05
1520   0.0945066    0.798301     1.84874  -0.000307804
1530   0.0906957    0.797452     1.95394  0.000566452
1540   0.0831776    0.795778     1.24087  0.000464087
1550   0.0814139    0.795385    0.820682  -0.000155976
1560   0.0862971    0.796473     1.89073  -0.000259758
1570   0.0866091    0.796542     3.08738  -5.30623e-05
1580   0.0873583    0.796709     1.59671  9.46715e-05
1590   0.0847157     0.79612     2.07973  0.000297435
1600   0.0814096    0.795384     1.93248  -7.49372e-05
1610   0.0862144    0.796454    0.987441  0.000117644
1620   0.0790568     0.79486    0.505116  0.00034267
1630    0.079361    0.794928     1.19748  -0.000113015
1640   0.0813171    0.795363     2.01642  0.000283641
1650   0.0736882    0.793664     1.74396  9.61166e-05
1660   0.0793947    0.794935     0.79902  -0.000405619
1670   0.0818006    0.795471   0.0217858  -0.000246366
1680    0.084322    0.796033    0.378586  0.000157354
1690   0.0786535     0.79477    0.273657  0.00042336
1700   0.0758548    0.794147     1.07153  -0.000108385
1710   0.0808212    0.795253    0.819657  -8.18782e-06
1720   0.0760186    0.794183     1.15533  0.000224999
1730   0.0763212    0.794251     1.07138  -0.000236546
1740   0.0807495    0.795237    0.630313  -0.000231408
1750   0.0809494    0.795281   -0.188585  5.26875e-05
1760   0.0796958    0.795002     0.86128  0.000427454
1770   0.0724003    0.793377    0.861116  0.000444847
1780   0.0707988     0.79302   0.0844766  9.03122e-06
1790   0.0722197    0.793337   -0.210084  -0.000103047
1800   0.0728597     0.79348    0.503804  -5.27546e-05
1810   0.0732748    0.793572    0.923418  -0.000182293
1820   0.0765056    0.794292    0.734443  0.000183617
1830   0.0696024    0.792754    0.755757  0.000358337
1840   0.0693389    0.792695    0.167477  0.000263572
1850    0.064331     0.79158    0.189365  -5.83604e-05
1860   0.0705061    0.792955    0.483002  -4.65196e-05
1870   0.0652614    0.791787   -0.210781  0.000326775
1880   0.0639706    0.791499    0.230577  -0.000120454
1890   0.0676705    0.792324    0.272242  -1.82495e-05
1900   0.0643356    0.791581     1.02822  0.000282838
1910   0.0620137    0.791064    0.356329  4.43924e-05
1920   0.0634477    0.791383    0.461422  -2.94611e-05
1930   0.0626029    0.791195     1.04874  0.000352945
1940   0.0563888    0.789811    0.104765  -0.000132508
1950   0.0652531    0.791785  -0.0224414  -0.000435295
1960   0.0650947     0.79175    -1.19828  0.000227943
1970   0.0606943     0.79077   0.0616864  0.000555387
1980    0.053987    0.789276   0.0198996  0.000470388
1990   0.0512865    0.788674   0.0414389  -1.14661e-05
2000   0.0542163    0.789327   -0.273903  -0.000316406
2010   0.0576146    0.790084    0.271565  -0.000265271
2020   0.0595217    0.790508   -0.505013  -0.000219862
2030   0.0620118    0.791063    0.439329  5.16437e-06
2040   0.0594184    0.790485   -0.841525  0.00046806
2050   0.0526506    0.788978    0.356164  9.2143e-05
2060   0.0575755    0.790075   -0.883435  -5.20187e-05
2070    0.053691     0.78921   -0.673392  6.93448e-05
2080   0.0561886    0.789766     -1.7865  -0.000325732
2090   0.0602056    0.790661   -0.211642  -0.000169167
2100    0.059572     0.79052    -0.73678  -8.23094e-05
2110   0.0618518    0.791027   -0.757745  2.85648e-05
2120   0.0590007    0.790392   -0.358789  -9.89996e-07
2130   0.0618716    0.791032   -0.358994  -2.97824e-05
2140   0.0595963    0.790525    -1.26173  1.66571e-05
2150   0.0615385    0.790958   -0.527147  0.000110887
2160   0.0573786    0.790031   -0.716122  0.000357668
2170   0.0543851    0.789364   -0.212032  0.000229133
2180   0.0527959     0.78901    -0.04435  -5.30086e-05
2190   0.0554453      0.7896   -0.611316  -0.000519022
2200   0.0631764    0.791323   -0.653821  -2.96216e-05
2210   0.0560377    0.789732   -0.526963  -9.57955e-05
2220   0.0650923    0.791749     -1.1368  1.1573e-05
2230   0.0558063    0.789681   -0.947581  0.000479085
2240   0.0555106    0.789615   -0.569221  0.000189932
2250   0.0520076    0.788835   -0.380226  -0.000130916
2260   0.0581289    0.790198  -0.0449855  -5.91898e-05
2270   0.0531914    0.789098    0.711181  8.30049e-05
2280   0.0564688    0.789828   -0.338644  0.000215058
2290   0.0488903     0.78814   0.0598409  0.000322481
2300   0.0500192    0.788392   -0.234596  -0.000136883
2310   0.0516279     0.78875    -1.24212  -0.000227113
2320   0.0545615    0.789404    0.920711  0.000168351
2330   0.0482609       0.788   -0.338705  0.000342483
2340   0.0477118    0.787878   0.0804987  -0.000137512
2350   0.0510111    0.788613     0.33237  -0.000131572
2360   0.0503432    0.788464    -0.17129  2.45776e-05
2370   0.0505196    0.788503   -0.527824  -0.000186748
2380   0.0540782    0.789296   -0.549261  7.30909e-05
2390   0.0490578    0.788178   -0.905999  0.000466348
2400   0.0447512    0.787218   -0.464702  -0.000490457
2410   0.0588669    0.790363   -0.340079  -0.000381189
2420    0.052375    0.788917    0.122778  0.000163602
2430   0.0555949    0.789634     0.12245  0.000237696
2440   0.0476211    0.787858   -0.738215  0.000377844
2450    0.048038     0.78795    0.689231  -0.00037759
2460   0.0551729     0.78954   0.0591028  -0.000249764
2470   0.0530333    0.789063   -0.507658  -6.14114e-06
2480   0.0552957    0.789567   -0.424371  0.000165662
2490     0.04972    0.788325    0.520689  0.000257645
2500   0.0501428    0.788419    0.269166  4.36565e-05
2510   0.0488469    0.788131   -0.129728  6.74315e-06
2520    0.050008    0.788389    -1.57888  0.000265685
2530   0.0435332    0.786947   -0.277142  6.22939e-05
2540   0.0487621    0.788112   -0.465502  -0.000258019
2550   0.0486936    0.788096    0.247955  0.000235863
2560   0.0440448    0.787061   -0.507781  0.00037866
2570   0.0411204     0.78641     1.08792  -0.000283908
2580    0.049723    0.788326   -0.172275  -2.30391e-05
2590   0.0415812    0.786512    0.227174  0.000324059
2600   0.0432418    0.786882   -0.466199  -0.000253564
2610   0.0466524    0.787642   -0.739343  0.000107596
2620   0.0410899    0.786403  -0.0048388  9.4752e-05
2630   0.0447574     0.78722  -0.0888029  2.67718e-05
2640   0.0405544    0.786283    -1.20159  0.000408402
2650   0.0365894      0.7854  -0.0882491  -0.000311563
2660   0.0467857    0.787672  -0.0681861  0.000140576
2670   0.0337778    0.784774  -0.0883313  0.000535519
2680   0.0360753    0.785286   -0.571949  0.000279827
2690   0.0281813    0.783527    0.520094  0.000557313
2700   0.0249291    0.782803    0.499088  -0.000198375
2710   0.0321488    0.784411   -0.319955  -0.000242499
2720    0.029779    0.783883  -0.0262559  -5.38917e-05
2730   0.0332266    0.784651   -0.173095  -0.000269164
2740   0.0351623    0.785082    0.162474  -0.000403345
2750   0.0412935    0.786448    0.393031  -7.99546e-05
2760   0.0367614    0.785439    0.456255  0.000173703
2770   0.0378194    0.785674   -0.278926  5.98187e-05
2780    0.035565    0.785172   -0.194408  0.000423654
2790   0.0293464    0.783787    0.561245  0.000117684
2800   0.0332114    0.784648   -0.720059  -0.000226926
2810   0.0338849    0.784798    -0.17373  0.000547868
2820    0.022254    0.782207   -0.740102  0.000124815
2830   0.0313886    0.784242    -1.03481  -0.000117631
2840   0.0246066    0.782731   -0.152416  0.000151279
2850    0.028363    0.783568    0.540157  -0.000253658
2860   0.0296798    0.783861   -0.090771  0.000177958
2870   0.0248038    0.782775    0.224611  0.000475419
2880   0.0201714    0.781743   0.0993108  -0.000274128
2890   0.0302864    0.783996   -0.069642  -0.000157247
2900   0.0233163    0.782444   -0.363546  0.000749948
2910   0.0152874    0.780655    0.140831  0.000114928
2920   0.0210178    0.781932     0.56063  -0.000365535
2930   0.0225981    0.782284   -0.153749  3.73684e-05
2940   0.0202704    0.781765   0.0568883  -8.68582e-05
2950   0.0243353    0.782671  -0.00760691  4.40312e-05
2960   0.0193898    0.781569    0.140134  0.000331632
2970   0.0177026    0.781193   -0.343052  0.000116507
2980   0.0170596     0.78105   -0.342806  -0.000139184
2990   0.0204863    0.781813   -0.154426  -0.00015247
3000    0.020109    0.781729    0.727615  0.000261645
3010   0.0152534    0.780648    0.286912  -7.41747e-05
3020   0.0215925     0.78206    0.433157  -0.000225401
3030   0.0197614    0.781652   0.0350003  0.000110553
3040   0.0193815    0.781567    -1.45618  -2.15005e-05
3050   0.0201915    0.781748   -0.553013  -0.000253551
3060   0.0244525    0.782697    -1.09936  0.000124481
3070   0.0177018    0.781193   -0.511431  -2.3949e-06
3080   0.0245004    0.782707    0.579853  -0.000374285
3090   0.0251875    0.782861     0.36983  0.000424618
3100    0.016008    0.780816  -0.0292078  0.000331552
3110   0.0185565    0.781383     0.32831  3.90808e-05
3120   0.0152264    0.780642   -0.175391  2.53269e-05
3130     0.01805    0.781271   -0.154877  -8.14396e-05
3140   0.0168552    0.781004  -0.00797583  0.000126287
3150   0.0155242    0.780708     1.35719  0.000106379
3160   0.0147276    0.780531    0.223483  -0.000196461
3170   0.0194535    0.781583     1.08345  -7.63955e-06
3180   0.0148804    0.780565  -0.00799676  6.59464e-05
3190   0.0181345    0.781289    0.453363  -0.000285152
3200   0.0205835    0.781835    0.222335  0.000188447
3210   0.0143656     0.78045    0.936714  3.89471e-05
3220   0.0198045    0.781661     1.04095  -0.000157247
3230   0.0175105     0.78115    0.894292  -1.68579e-06
3240   0.0198382    0.781669    0.474513  0.000182694
3250   0.0138566    0.780337     1.37764  0.000394381
3260   0.0119506    0.779912    0.956922  -0.000171683
3270   0.0172903    0.781101    0.663222  -0.000233401
3280   0.0166187    0.780952    0.558805  0.000211299
3290   0.0130643     0.78016     1.14635  -0.000179831
3300   0.0202153    0.781753     1.60802  -0.000227635
3310    0.017617    0.781174     1.58715  0.000108479
3320   0.0180457     0.78127     1.25117  -5.66211e-05
3330   0.0187494    0.781426    0.642338  -0.000174145
3340   0.0215286    0.782045     1.08298  0.00013691
3350   0.0160112    0.780816     1.18795  -5.04933e-05
3360   0.0225384     0.78227     1.18772  1.97076e-05
3370   0.0156171    0.780729   0.0332163  0.000213399
3380   0.0182705     0.78132    0.725995  -0.000182145
3390     0.01926     0.78154     1.29271  -2.93407e-05
3400   0.0188573     0.78145    0.788665  0.000187002
3410     0.01552    0.780707     1.79711  0.000376145
3420   0.0113344    0.779775     1.18803  -5.71428e-05
3430   0.0166628    0.780962     1.71247  -0.000519637
3440   0.0217271     0.78209     1.56526  1.27905e-05
3450    0.016407    0.780905    0.768028  0.000145767
3460   0.0188118     0.78144    0.578274  -0.000135117
3470   0.0191093    0.781507     1.25039  0.000344302
3480   0.0119257    0.779906    0.977497  0.000542797
3490   0.0082534    0.779088    0.494864  4.90082e-05
3500   0.0109456    0.779688     1.18785  -0.000170198
3510   0.0116574    0.779847     1.50233  0.00039034
3520  0.00313878    0.777949    0.956511  -7.57263e-06
3530   0.0118088     0.77988     1.35495  -0.000433783
3540   0.0118144    0.779882    0.788132  0.00011367
3550   0.0095354    0.779374   -0.261426  0.000449744
3560  0.00281955    0.777878    0.389668  -2.88591e-05
3570   0.0101126    0.779503    0.451949  0.000172954
3580  -0.000639529    0.777108     0.55735  0.000459324
3590  0.000926113    0.777456    0.787968  -0.000537927
3600    0.010119    0.779504     1.52227  -0.000150022
3610  0.00392655    0.778125     1.71216  -1.46904e-05
3620   0.0104128    0.779569     1.48036  9.46316e-05
3630  0.00203392    0.777703    0.745402  0.000375984
3640  0.00289313    0.777894    0.409588  8.21488e-06
3650  0.00186962    0.777666     1.52229  0.00010983
3660  0.000696525    0.777405     1.45923  9.56484e-05
3670  -4.33488e-05     0.77724    0.934274  0.000190614
3680  -0.00311576    0.776556    0.808687  0.000154504
3690  -0.00313342    0.776552     1.94176  -3.47058e-05
3700  -0.00242165    0.776711     1.83716  -0.000290839
3710  0.00268335    0.777848     1.45855  -0.000489347
3720  0.00736529    0.778891     1.29032  8.89989e-05
3730  0.000903368    0.777451     1.08091  0.000272228
3740  0.00192073    0.777678     1.54272  -5.76914e-05
3750   0.0020572    0.777708      1.2699  3.79302e-05
3760  0.00116212    0.777509     2.08813  0.000200569
3770  -0.00195418    0.776815     1.35323  0.000171375
3780  -0.00226538    0.776745     1.68962  0.000231435
3790  -0.00658287    0.775784     1.87819  0.00026899
3800  -0.00764518    0.775547     0.95442  0.000299843
3810  -0.0125797    0.774448     0.40889  -0.000250487
3820  -0.00263545    0.776663    0.786041  -0.000138328
3830  -0.00981316    0.775064    0.702569  0.000225909
3840  -0.00715363    0.775657    0.954112  4.78978e-05
3850  -0.0107711    0.774851     1.20621  0.00012246
3860  -0.00960284    0.775111    0.618052  -0.000139479
3870  -0.00798154    0.775472    0.176857  -1.20815e-05
3880  -0.00936121    0.775165    0.953907  -7.26361e-05
3890  -0.00652882    0.775796     1.01674  -0.00022334
3900  -0.0048944     0.77616     1.01672  6.29093e-05
3910   -0.007787    0.775515     1.39481  -2.0564e-05
3920  -0.00448313    0.776251     1.26845  -0.000186788
3930  -0.00405124    0.776348     1.22672  0.000245202
3940  -0.00938716    0.775159    0.366406  0.000268254
3950  -0.00941633    0.775153     0.44996  -0.000286584
3960  -0.00365548    0.776436    0.344723  -0.000256494
3970  -0.00428645    0.776295     1.30985  -8.20952e-05
3980  -0.00201358    0.776801    0.890109  -0.000112734
3990  -0.00203178    0.776797    0.995017  -5.19116e-05
4000  -0.000975349    0.777033     1.07945  0.00027073
4010  -0.00744637    0.775591    0.512343  0.000132428
4020  -0.00362391    0.776443    0.218521  -0.000452193
4030  0.00159748    0.777606    0.617334  -0.000106084
4040  -0.00150222    0.776915    0.994853  0.000457544
4050  -0.0075534    0.775567    0.974196  -0.000106793
4060  0.000633642    0.777391     1.66687  -0.00013703
4070  -0.00481279    0.776178     2.27597  0.000203472
4080  -0.0034358    0.776485      1.6249  -0.000176847
4090  -0.00127585    0.776966    0.280474  -0.000294317
4100  0.00245055    0.777796     2.12823  0.000165702
4110  -0.00458989    0.776228       1.604  0.00027489
4120  -0.00304726    0.776571     1.03637  0.000268883
4130  -0.00996756     0.77503     1.24697  2.55812e-05
4140  -0.00355889    0.776457     1.03594  -5.19517e-05
4150  -0.00892852    0.775261    0.805796  0.000269994
4160  -0.00895876    0.775254    0.847399  8.19614e-05
4170  -0.0105677    0.774896     1.60357  0.000153233
4180  -0.0120234    0.774572     2.54819  -5.21256e-05
4190  -0.00952524    0.775128      2.2748  -0.000321731
4200  -0.00558879    0.776005     2.29565  -8.4383e-05
4210  -0.00783758    0.775504     1.83381  -0.000164873
4220  -0.00229133     0.77674     2.40041  -0.000100826
4230  -0.00582105    0.775953     2.02261  0.000393524
4240  -0.0101618    0.774986    0.930666  7.45627e-05
4250  -0.00731231    0.775621    0.909844  -6.893e-05
4260  -0.00878322    0.775294    0.994054  -5.32495e-06
4270  -0.00720581    0.775645      1.3719  1.10245e-05
4280  -0.00900371    0.775244    0.951549  6.72308e-05
4290  -0.00855042    0.775345     1.18264  -0.00027952
4300  -0.00341332     0.77649    0.510478  -0.00027196
4310  -0.00311122    0.776557    0.468547  -0.000176151
4320  0.00010971    0.777274    0.405364  -3.85323e-05
4330  -0.00234057    0.776729     2.21105  0.000131545
4340  -0.00252119    0.776688      1.0142  -7.13918e-05
4350  -0.000912734    0.777047    0.971858  0.000336556
4360  -0.0092523    0.775189     0.59438  0.000394033
4370  -0.00879339    0.775291     1.01395  0.000232532
4380  -0.0139029    0.774153     1.24478  0.000388695
4390  -0.0165673     0.77356     1.14018  0.000168351
4400    -0.01727    0.773403  -0.0152962  -0.000390701
4410  -0.00875325      0.7753    0.761118  0.000243797
4420  -0.0221459    0.772317     1.03484  0.000796361
4430  -0.0246805    0.771752    0.510067  -0.000234525
4440  -0.0174554    0.773362    0.908777  -0.000168151
4450  -0.0213175    0.772502    0.866683  0.000561314
4460  -0.0286817    0.770861     1.39168  0.00027172
4470  -0.0267518    0.771291    0.131769  -0.000301743
4480  -0.0226468    0.772205     1.39112  0.000256989
4490  -0.0318916    0.770146    0.992434  0.000206522
4500  -0.0267773    0.771285    0.887013  -0.000110018
4510  -0.0296913    0.770636     1.05556  8.20015e-05
4520  -0.0284173     0.77092     1.30695  -0.000127625
4530  -0.0271388    0.771205     1.43287  0.000217493
4540  -0.0327672    0.769951     1.72747  9.09656e-05
4550  -0.0289581      0.7708     1.81092  0.00015144
4560   -0.035796    0.769276      1.1601  0.000227287
4570  -0.0335038    0.769787    0.760586  -2.58084e-05
4580  -0.0352798    0.769391     1.72725  -9.25846e-06
4590  -0.0333187    0.769828     1.11808  0.000144483
4600  -0.0381694    0.768748     1.30695  0.000417674
4610  -0.0416721    0.767968     1.68495  -0.00026507
4620   -0.032868    0.769929    0.739067  7.89389e-07
4630  -0.0416879    0.767964     1.57967  0.000754791
4640  -0.0479639    0.766566     1.07615  -0.000317557
4650  -0.0353368    0.769379     1.64172  -0.000549674
4660  -0.0369704    0.769015     1.22223  0.000155052
4670  -0.0384378    0.768688     1.70497  0.000311336
4680  -0.0431971    0.767628     1.28542  0.000537606
4690    -0.04919    0.766293     1.43199  -0.000155213
4700  -0.0400929    0.768319     2.60769  -1.51988e-05
4710   -0.048886    0.766361     1.45318  0.000532241
4720  -0.0507377    0.765948     1.36922  -5.02391e-05
4730  -0.0478812    0.766584     1.53727  -0.000461264
4740  -0.0415124    0.768003     1.59965  -3.31271e-05
4750  -0.0472187    0.766732     2.01998  0.000167682
4760   -0.044866    0.767256     1.13788  1.06901e-05
4770  -0.0474325    0.766684     2.08243  0.000239489
4780  -0.0496558    0.766189     1.76782  4.60915e-05
4790  -0.0483543    0.766479    0.696336  -0.000227795
4800  -0.0450999    0.767204     1.93526  -0.000113215
4810    -0.04609    0.766983     2.10312  0.000134783
4820  -0.0477956    0.766604     2.56489  -0.00013188
4830  -0.0434524    0.767571     3.46815  -6.93848e-05
4840  -0.0464079    0.766913     2.18758  -5.24601e-05
4850  -0.0424032    0.767805     2.22916  -0.000284805
4860  -0.0407118    0.768181     1.87208  9.94075e-06
4870   -0.042602     0.76776     1.87181  5.45474e-05
4880  -0.0418027    0.767938     1.97672  -7.10305e-05
4890  -0.0411814    0.768077     2.58574  -2.62635e-05
4900  -0.0412775    0.768055     2.85878  -0.000162063
4910  -0.0379401    0.768799     1.95557  0.000326949
4920  -0.0478164    0.766599     2.12362  0.000626471
4930  -0.0504695    0.766008     1.85095  -0.000380025
4940  -0.0402159    0.768292     1.87132  -0.000416671
4950  -0.0421361    0.767864     1.89226  0.000475472
4960  -0.0497254    0.766174     2.77436  0.00019305
4970  -0.0459971    0.767004     2.22816  0.000158263
4980  -0.0528907    0.765469     2.37547  0.000203833
4990  -0.0500738    0.766096     2.83734  0.000249403
