Time   Number   
ps   
0          50          39
10          48          39
20          48          36
30          46          41
40          50          37
50          43          29
60          47          35
70          47          40
80          43          35
90          46          46
100          45          37
110          45          37
120          48          42
130          48          36
140          44          38
150          46          42
160          51          38
170          45          33
180          43          35
190          44          40
200          46          40
210          46          38
220          46          37
230          47          35
240          43          36
250          44          39
260          47          36
270          45          38
280          42          39
290          47          34
300          46          37
310          45          37
320          48          33
330          43          38
340          43          40
350          41          35
360          43          35
370          44          37
380          47          41
390          44          36
400          43          36
410          39          36
420          45          39
430          49          36
440          46          41
450          41          33
460          47          42
470          47          36
480          43          39
490          46          36
500          44          37
510          45          42
520          45          37
530          44          33
540          42          35
550          44          34
560          46          38
570          46          41
580          42          41
590          44          33
600          43          35
610          47          35
620          48          37
630          47          33
640          46          35
650          47          40
660          43          42
670          49          38
680          45          35
690          44          39
700          49          37
710          45          41
720          42          38
730          45          41
740          42          39
750          46          41
760          44          39
770          45          36
780          44          45
790          41          41
800          42          37
810          45          41
820          48          36
830          45          35
840          38          40
850          47          41
860          49          42
870          48          37
880          45          33
890          42          39
900          44          29
910          43          45
920          44          40
930          43          35
940          44          41
950          49          41
960          44          38
970          46          38
980          49          46
990          41          37
1000          49          37
1010          47          38
1020          49          37
1030          45          36
1040          48          39
1050          48          40
1060          44          40
1070          46          37
1080          47          36
1090          51          39
1100          49          40
1110          46          43
1120          41          38
1130          47          42
1140          47          47
1150          42          37
1160          47          45
1170          47          34
1180          47          45
1190          42          42
1200          44          39
1210          44          35
1220          45          45
1230          45          37
1240          46          31
1250          43          35
1260          42          39
1270          48          34
1280          42          30
1290          44          30
1300          48          35
1310          47          35
1320          48          32
1330          44          31
1340          44          37
1350          43          30
1360          46          38
1370          46          35
1380          39          32
1390          42          37
1400          46          34
1410          46          33
1420          44          37
1430          46          35
1440          51          35
1450          45          37
1460          42          36
1470          44          37
1480          47          37
1490          46          37
1500          46          31
1510          46          34
1520          42          36
1530          47          37
1540          46          34
1550          49          33
1560          51          38
1570          46          32
1580          48          40
1590          46          35
1600          43          31
1610          44          30
1620          44          34
1630          42          35
1640          43          36
1650          45          34
1660          47          37
1670          43          37
1680          46          35
1690          44          39
1700          45          35
1710          50          35
1720          46          36
1730          48          35
1740          48          35
1750          49          34
1760          47          35
1770          50          34
1780          49          36
1790          50          33
1800          45          41
1810          50          39
1820          50          37
1830          47          42
1840          45          38
1850          46          34
1860          44          30
1870          45          38
1880          47          38
1890          48          39
1900          50          35
1910          48          37
1920          50          35
1930          48          40
1940          47          40
1950          47          40
1960          49          35
1970          44          40
1980          44          37
1990          43          39
2000          48          42
2010          46          36
2020          42          36
2030          45          37
2040          48          38
2050          51          35
2060          51          34
2070          48          40
2080          47          31
2090          46          36
2100          41          31
2110          45          42
2120          48          39
2130          47          38
2140          51          36
2150          50          39
2160          51          40
2170          47          41
2180          50          35
2190          48          37
2200          47          33
2210          46          35
2220          50          34
2230          46          33
2240          45          45
2250          49          42
2260          45          41
2270          50          41
2280          48          34
2290          47          38
2300          47          38
2310          49          38
2320          44          29
2330          51          40
2340          46          41
2350          53          39
2360          40          35
2370          47          35
2380          45          39
2390          43          47
2400          46          36
2410          48          30
2420          51          38
2430          47          35
2440          38          42
2450          46          43
2460          48          40
2470          49          40
2480          50          40
2490          42          38
2500          49          40
2510          47          34
2520          44          31
2530          47          40
2540          49          39
2550          48          35
2560          49          36
2570          48          38
2580          50          39
2590          45          32
2600          45          38
2610          50          39
2620          48          40
2630          42          34
2640          45          33
2650          46          41
2660          46          38
2670          47          40
2680          50          40
2690          52          42
2700          49          43
2710          45          37
2720          50          39
2730          42          35
2740          51          39
2750          48          39
2760          47          34
2770          48          41
2780          48          37
2790          46          39
2800          47          43
2810          52          34
2820          45          35
2830          48          39
2840          48          36
2850          51          45
2860          47          40
2870          47          36
2880          48          39
2890          50          39
2900          45          43
2910          49          32
2920          47          35
2930          46          36
2940          44          42
2950          44          38
2960          50          37
2970          48          43
2980          45          46
2990          50          43
3000          44          37
3010          45          35
3020          40          40
3030          43          36
3040          47          42
3050          46          35
3060          43          50
3070          53          39
3080          46          34
3090          47          35
3100          50          39
3110          49          42
3120          50          38
3130          49          45
3140          45          43
3150          47          36
3160          41          42
3170          48          40
3180          42          41
3190          47          33
3200          44          40
3210          43          38
3220          46          42
3230          44          40
3240          47          42
3250          45          40
3260          41          35
3270          43          45
3280          47          36
3290          46          43
3300          46          40
3310          48          36
3320          45          40
3330          43          36
3340          46          39
3350          47          31
3360          49          40
3370          43          35
3380          44          34
3390          50          42
3400          50          40
3410          49          38
3420          50          43
3430          45          36
3440          48          34
3450          45          37
3460          46          42
3470          45          41
3480          48          34
3490          46          39
3500          51          39
3510          50          35
3520          47          41
3530          47          45
3540          49          42
3550          52          39
3560          45          39
3570          51          40
3580          55          39
3590          47          42
3600          47          44
3610          46          43
3620          43          36
3630          50          40
3640          44          34
3650          48          40
3660          50          37
3670          46          37
3680          46          47
3690          44          39
3700          48          39
3710          42          45
3720          45          42
3730          44          39
3740          46          40
3750          51          35
3760          47          37
3770          48          32
3780          45          34
3790          48          35
3800          47          41
3810          48          37
3820          42          48
3830          42          34
3840          49          33
3850          50          39
3860          46          36
3870          46          40
3880          50          39
3890          47          46
3900          51          44
3910          50          37
3920          45          34
3930          48          40
3940          47          40
3950          43          32
3960          46          38
3970          48          36
3980          50          37
3990          46          37
4000          46          38
4010          49          36
4020          44          40
4030          46          45
4040          46          37
4050          41          40
4060          50          33
4070          44          39
4080          52          34
4090          48          40
4100          44          38
4110          46          38
4120          46          34
4130          48          41
4140          45          44
4150          44          40
4160          46          46
4170          46          42
4180          51          42
4190          47          38
4200          50          35
4210          51          38
4220          51          41
4230          47          40
4240          52          42
4250          46          37
4260          50          40
4270          52          44
4280          51          38
4290          52          41
4300          47          42
4310          51          44
4320          51          41
4330          48          37
4340          49          39
4350          47          39
4360          50          43
4370          48          44
4380          48          47
4390          53          41
4400          51          36
4410          48          41
4420          51          42
4430          47          37
4440          49          41
4450          43          37
4460          50          29
4470          49          35
4480          52          43
4490          53          44
4500          45          38
4510          46          40
4520          50          38
4530          51          43
4540          51          37
4550          50          44
4560          46          42
4570          50          44
4580          51          41
4590          50          37
4600          53          39
4610          52          40
4620          50          37
4630          50          39
4640          53          40
4650          46          42
4660          48          48
4670          49          43
4680          53          41
4690          50          38
4700          47          41
4710          49          45
4720          54          43
4730          48          41
4740          52          41
4750          46          43
4760          49          35
4770          47          41
4780          51          39
4790          46          40
4800          51          43
4810          46          42
4820          43          49
4830          47          38
4840          47          40
4850          49          48
4860          49          39
4870          48          43
4880          45          40
4890          44          39
4900          45          33
4910          43          37
4920          49          44
4930          45          42
4940          48          35
4950          48          45
4960          44          42
4970          50          43
4980          50          38
4990          45          43
5000          47          40
5010          46          39
5020          51          39
5030          54          40
5040          55          47
5050          51          45
5060          51          43
5070          49          41
5080          48          36
5090          52          36
5100          48          36
5110          48          36
5120          45          38
5130          48          38
5140          49          34
5150          50          39
5160          48          41
5170          47          44
5180          48          42
5190          47          43
5200          51          41
5210          49          42
5220          47          44
5230          48          34
5240          51          35
5250          47          45
5260          45          42
5270          49          41
5280          47          35
5290          49          36
5300          54          39
5310          48          40
5320          47          42
5330          49          43
5340          48          42
5350          51          38
5360          49          42
5370          52          40
5380          51          43
5390          51          41
5400          50          44
5410          49          41
5420          52          43
5430          52          46
5440          51          43
5450          54          36
5460          51          50
5470          56          40
5480          51          42
5490          52          42
5500          56          52
5510          53          42
5520          52          39
5530          57          41
5540          51          51
5550          55          46
5560          54          47
5570          47          48
5580          50          42
5590          54          43
5600          49          44
5610          54          46
5620          54          49
5630          53          42
5640          51          38
5650          45          37
5660          45          41
5670          47          42
5680          48          46
5690          49          47
5700          47          44
5710          54          42
5720          45          37
5730          53          44
5740          50          48
5750          47          47
5760          45          41
5770          48          40
5780          50          40
5790          50          46
5800          51          43
5810          47          39
5820          46          40
5830          48          41
5840          46          38
5850          52          45
5860          50          43
5870          51          45
5880          56          46
5890          53          42
5900          48          42
5910          51          45
5920          48          40
5930          49          34
5940          45          40
5950          48          42
5960          48          37
5970          50          36
5980          51          34
5990          47          35
6000          47          46
6010          51          44
6020          49          43
6030          49          45
6040          52          52
6050          51          49
6060          48          48
6070          55          46
6080          54          46
6090          52          47
6100          51          46
6110          47          45
6120          51          42
6130          48          43
6140          48          57
6150          53          45
6160          49          46
6170          47          52
6180          50          44
6190          47          44
6200          48          40
6210          49          44
6220          54          43
6230          53          47
6240          47          41
6250          49          39
6260          50          47
6270          47          41
6280          52          55
6290          48          39
6300          52          49
6310          50          47
6320          52          46
6330          52          45
6340          43          45
6350          44          47
6360          51          39
6370          52          47
6380          49          46
6390          51          49
6400          55          51
6410          49          47
6420          50          44
6430          53          48
6440          48          50
6450          52          44
6460          53          44
6470          50          53
6480          51          45
6490          52          46
6500          50          41
6510          56          48
6520          53          43
6530          48          41
6540          50          38
6550          51          46
6560          51          44
6570          50          45
6580          50          51
6590          50          41
6600          49          38
6610          52          38
6620          49          39
6630          46          45
6640          45          44
6650          49          41
6660          48          39
6670          47          45
6680          47          41
6690          46          48
6700          52          39
6710          48          41
6720          45          43
6730          51          50
6740          54          50
6750          51          40
6760          49          36
6770          53          41
6780          54          42
6790          53          42
6800          45          47
6810          49          36
6820          50          51
6830          54          41
6840          49          38
6850          55          45
6860          50          48
6870          51          40
6880          54          44
6890          48          46
6900          51          44
6910          52          43
6920          52          50
6930          56          42
6940          49          46
6950          56          45
6960          52          48
6970          49          47
6980          50          43
6990          51          48
7000          48          51
7010          55          44
7020          56          44
7030          52          48
7040          46          46
7050          51          46
7060          55          40
7070          53          43
7080          51          43
7090          51          41
7100          47          50
7110          50          41
7120          48          52
7130          47          46
7140          51          39
7150          48          42
7160          48          42
7170          47          40
7180          50          42
7190          48          43
7200          52          39
7210          50          39
7220          55          43
7230          52          43
7240          51          40
7250          51          48
7260          48          47
7270          51          48
7280          48          44
7290          55          48
7300          57          40
7310          55          51
7320          51          48
7330          52          44
7340          55          51
7350          54          43
7360          58          48
7370          50          42
7380          49          47
7390          52          48
7400          53          49
7410          50          44
7420          49          48
7430          49          43
7440          57          46
7450          46          47
7460          52          47
7470          55          46
7480          52          47
7490          47          40
7500          57          50
7510          54          48
7520          57          41
7530          53          44
7540          52          46
7550          49          46
7560          54          53
7570          53          49
7580          50          45
7590          54          51
7600          51          50
7610          51          49
7620          51          49
7630          51          46
7640          49          48
7650          51          54
7660          53          51
7670          51          42
7680          48          44
7690          53          46
7700          49          41
7710          50          43
7720          51          42
7730          59          47
7740          45          47
7750          58          51
7760          50          45
7770          53          45
7780          53          53
7790          52          50
7800          57          46
7810          56          46
7820          51          56
7830          56          45
7840          50          48
7850          44          48
7860          48          51
7870          52          44
7880          51          44
7890          55          48
7900          49          42
7910          51          42
7920          48          44
7930          46          47
7940          50          45
7950          45          48
7960          50          41
7970          46          41
7980          46          41
7990          50          49
8000          52          42
8010          48          49
8020          47          43
8030          47          50
8040          50          45
8050          48          41
8060          52          50
8070          49          47
8080          47          52
8090          49          50
8100          51          48
8110          49          55
8120          53          48
8130          53          48
8140          52          55
8150          52          43
8160          50          52
8170          52          44
8180          54          55
8190          50          51
8200          56          43
8210          49          42
8220          52          50
8230          59          49
8240          49          44
8250          51          42
8260          48          49
8270          52          41
8280          48          49
8290          47          49
8300          53          44
8310          46          46
8320          52          51
8330          53          49
8340          55          42
8350          49          48
8360          49          48
8370          49          42
8380          50          49
8390          54          40
8400          49          43
8410          54          48
8420          50          49
8430          50          44
8440          49          48
8450          46          48
8460          50          40
8470          52          37
8480          48          45
8490          48          44
8500          49          42
8510          54          46
8520          56          46
8530          51          45
8540          57          48
8550          50          45
8560          53          44
8570          54          44
8580          55          44
8590          50          42
8600          57          46
8610          54          46
8620          56          44
8630          49          46
8640          55          45
8650          50          44
8660          51          45
8670          53          49
8680          49          35
8690          50          47
8700          50          47
8710          55          49
8720          51          51
8730          46          40
8740          51          45
8750          48          49
8760          53          43
8770          56          41
8780          52          48
8790          48          47
8800          50          44
8810          51          40
8820          51          39
8830          52          41
8840          53          44
8850          51          40
8860          49          42
8870          57          47
8880          52          46
8890          50          45
8900          54          44
8910          49          51
8920          57          43
8930          50          45
8940          53          50
8950          56          44
8960          50          51
8970          55          49
8980          52          47
8990          56          42
9000          51          46
9010          52          46
9020          61          46
9030          51          43
9040          51          46
9050          54          45
9060          53          48
9070          48          51
9080          53          40
9090          51          47
9100          52          38
9110          54          44
9120          53          41
9130          47          45
9140          55          38
9150          54          40
9160          52          40
9170          56          45
9180          51          40
9190          52          50
9200          53          44
9210          49          40
9220          51          45
9230          50          37
9240          45          43
9250          52          41
9260          51          43
9270          49          43
9280          52          40
9290          48          42
9300          53          44
9310          52          36
9320          52          43
9330          49          36
9340          50          47
9350          48          40
9360          43          41
9370          53          47
9380          46          41
9390          51          39
9400          52          42
9410          47          41
9420          54          47
9430          50          42
9440          50          44
9450          54          39
9460          49          41
9470          50          42
9480          53          43
9490          47          38
9500          52          39
9510          55          41
9520          53          46
9530          53          44
9540          58          48
9550          53          41
9560          44          41
9570          54          41
9580          57          45
9590          48          47
9600          54          41
9610          58          43
9620          53          45
9630          51          40
9640          56          47
9650          54          42
9660          53          41
9670          50          38
9680          51          50
9690          53          46
9700          52          45
9710          45          42
9720          51          43
9730          46          43
9740          51          38
9750          49          37
9760          50          42
9770          52          37
9780          53          49
9790          53          53
9800          51          47
9810          55          39
9820          50          49
9830          56          47
9840          54          41
9850          53          42
9860          51          45
9870          52          47
9880          50          50
9890          56          44
9900          53          44
9910          50          44
9920          50          45
9930          54          35
9940          53          48
9950          52          43
9960          54          48
9970          51          48
9980          51          41
9990          53          43
10000          48          44
