Time   C(t)   
ps   
0           1           1  3.86499e-10   0.0233869
10    0.771355    0.796883   0.0503075     0.01349
20    0.730201    0.760324   0.0696452  0.00359301
30    0.699494    0.733046     -0.6033  0.00269726
40    0.676255    0.712402   -0.626757  0.00225555
50    0.654383    0.692972   -0.375845  0.00202925
60     0.63567    0.676348    0.797387  0.00191613
70    0.616061    0.658928    -0.27272  0.00186993
80    0.598272    0.643125    0.376624  0.00162593
90    0.583542     0.63004   -0.422371  0.00145685
100    0.569135    0.617241    0.247828  0.00137815
110    0.555979    0.605555    0.540469  0.00136588
120    0.541817    0.592974    0.267042  0.00131596
130     0.52966    0.582174    0.224083  0.00121926
140    0.517432    0.571311    0.895204  0.00116787
150    0.506303    0.561425     0.18016  0.00122189
160    0.492994    0.549602    0.473683  0.00119846
170    0.482334    0.540132  -0.0518447  0.00102128
180    0.472569    0.531457    0.135643  0.00100932
190    0.462147    0.522199   -0.410842  0.00111963
200    0.450176    0.511564   0.0306312  0.00106645
210    0.440818    0.503252     1.10008  0.000917821
220    0.431819    0.495258    0.931318  0.000831112
230    0.424196    0.488485     1.20403  0.000875433
240    0.414311    0.479704      1.3082  0.00087242
250    0.406748    0.472985     1.97936  0.000735743
260    0.399596    0.466632     1.37027  0.000713533
270    0.392477    0.460308     2.31336  0.000749437
280    0.384607    0.453317     2.35518  0.000797293
290    0.376531    0.446142     1.78763  0.000746594
300    0.369675    0.440052     2.33291  0.000683914
310    0.362853    0.433991     2.03856  0.000642431
320    0.356827    0.428638     2.64638  0.000609195
330    0.350669    0.423168    0.757061  0.000725102
340    0.342325    0.415755     1.15582  0.000725283
350    0.336163    0.410282    0.735755  0.000592853
360    0.330468    0.405222     1.23932  0.00047434
370    0.326677    0.401854     1.34302  0.000457394
380     0.32132    0.397095     2.16146  0.000562735
390    0.315422    0.391856      1.9517  0.000538686
400    0.310546    0.387524     3.35731  0.000491717
410    0.305588     0.38312     1.67772  0.000393985
420    0.302666    0.380524     2.89389  0.000386481
430    0.297858    0.376253      1.1515  0.00048614
440    0.292943    0.371887     1.71756  0.000414656
450    0.289565    0.368886     1.33927  0.000391443
460    0.285115    0.364932    0.688717  0.000453953
470    0.280486     0.36082  -0.0673601  0.000377336
480    0.277568    0.358228      1.0445  0.000370935
490    0.273067     0.35423     1.14881  0.000421415
500     0.26914    0.350741     1.10686  0.000382234
510    0.265422    0.347439    0.204284  0.000316119
520    0.262817    0.345125    0.581533  0.000333889
530    0.258745    0.341507     1.14768  0.00040282
540    0.254761    0.337968     1.58803  0.00038413
550    0.251062    0.334682    0.790551  0.000394726
560    0.246866    0.330955     1.46192  0.000398005
570    0.243102    0.327611     1.69273  0.000341324
580     0.24004     0.32489    0.139158  0.000311431
590    0.236873    0.322077  -0.0706191  0.000294885
600    0.234142    0.319651    0.432291  0.000364359
610    0.229586    0.315604   -0.470076  0.000403172
620    0.226079    0.312488    0.956876  0.000268646
630    0.224213    0.310831    0.977198  0.000258221
640    0.220914      0.3079     1.54403  0.000268555
650    0.218842    0.306059    0.431185  0.000300075
660    0.214913    0.302569    0.851353  0.000308026
670    0.212682    0.300587    0.346926  0.000224631
680     0.21042    0.298578     1.03923  0.000262293
690    0.207436    0.295927      1.6686  0.000255336
700    0.205313    0.294041     1.87836  0.000213733
710    0.203161    0.292129    0.912708  0.000226638
720    0.200781    0.290015     1.31118  0.000225867
730    0.198644    0.288116    0.911908  0.000279948
740    0.195182    0.285041     1.64658  0.000282954
750    0.192985    0.283089     1.14268  0.000367267
760    0.187836    0.278515     1.10106  0.000272945
770    0.187526     0.27824     1.03708  0.000142425
780    0.184988    0.275985   0.0298834  0.000198958
790    0.183547    0.274705    0.344158  0.000183152
800    0.181325    0.272731     1.07856  0.000280156
810    0.177943    0.269727    0.847663  0.000293299
820    0.175459     0.26752   -0.138737  0.000199651
830     0.17395     0.26618    0.931328  0.000210187
840    0.171255    0.263786    0.364665  0.000218121
850    0.169588    0.262305    0.826235  0.000193442
860    0.167386    0.260349    0.427516  0.000190059
870    0.165787    0.258928    0.721162  0.000184142
880    0.163703    0.257077    0.343154  0.00019595
890    0.161868    0.255446     1.14051  0.000172307
900    0.160257    0.254016     1.03599  0.000118101
910    0.159506    0.253348     1.68591  0.000129863
920     0.15766    0.251708     2.75634  0.000203863
930    0.155429    0.249726     0.59464  0.000124071
940    0.155179    0.249504     1.07715  9.12987e-05
950    0.153603    0.248104     1.30753  0.000169271
960    0.151793    0.246497    0.993154  0.000141551
970    0.150772    0.245589    0.510012  0.000107355
980    0.149646    0.244589    0.593718  0.000201049
990    0.146751    0.242017    0.593944  0.000224498
1000    0.145156    0.240601    0.341945  8.39069e-05
1010    0.145072    0.240526   0.0687232  0.000143265
1020    0.142291    0.238055  -0.0982784  0.000130565
1030    0.142461    0.238206    0.215526  4.99129e-05
1040    0.141293    0.237168    0.572351  9.24893e-05
1050    0.140611    0.236563     1.24345   0.0001095
1060    0.139103    0.235223      1.0754  0.00023502
1070    0.135911    0.232388     1.24329  0.000135853
1080    0.136385    0.232809    0.487497  3.53642e-05
1090    0.135204    0.231759     1.05379  0.000102769
1100     0.13433    0.230983    -0.12149  7.44574e-05
1110    0.133714    0.230436   -0.394589  0.00011232
1120    0.132084    0.228988    0.423663  0.000134645
1130    0.131022    0.228044    0.549611  0.000118037
1140    0.129723    0.226891   0.0462288  8.96081e-05
1150    0.129229    0.226452    0.465413  6.76766e-05
1160    0.128369    0.225688   0.0456346  0.000152728
1170    0.126175    0.223739   -0.164408  0.000134687
1180    0.125676    0.223295    -0.33225  0.000136408
1190    0.123447    0.221315   -0.457994  0.000131363
1200    0.123048    0.220961   -0.731256  0.000102886
1210    0.121389    0.219487    -1.04666  0.000141167
1220    0.120225    0.218453    -1.25623  4.41745e-05
1230    0.120505    0.218702   -0.353781  8.78304e-05
1240    0.118468    0.216893   0.0452654  0.000107669
1250    0.118352    0.216789   -0.143964  8.16014e-05
1260    0.116836    0.215443   -0.416489  0.000143833
1270    0.115475    0.214234    0.170599  0.000154756
1280    0.113741    0.212693   -0.122945  0.000128586
1290    0.112904    0.211949     0.63225  0.000118335
1300    0.111375    0.210591    0.443001  0.000115919
1310    0.110585     0.20989    0.946567  0.000105603
1320    0.109263    0.208715     1.19805  0.000121781
1330     0.10815    0.207726    0.337825  8.2095e-05
1340    0.107621    0.207256    0.253566  9.29832e-05
1350     0.10629    0.206074      0.6318  5.17689e-05
1360    0.106585    0.206336    0.694978  1.32289e-05
1370    0.106025    0.205839     1.38685  6.54001e-05
1380    0.105277    0.205174     1.09319  2.39976e-05
1390    0.105546    0.205413    0.882322  8.85073e-05
1400    0.103507    0.203602     1.61781  3.62009e-05
1410    0.104821    0.204769    0.714255  1.80304e-07
1420    0.103504    0.203599    0.777372  8.07911e-05
1430    0.103206    0.203334    0.861201  3.92545e-05
1440    0.102718    0.202901    0.587918  0.000116253
1450    0.100881    0.201269     1.21813  0.000101587
1460    0.100687    0.201096     1.19666  1.53616e-05
1470    0.100573    0.200996     1.02863  7.4983e-05
1480   0.0991871    0.199764    0.903013  9.13512e-05
1490   0.0987464    0.199373     1.07022  7.39735e-05
1500   0.0977076     0.19845     0.96531  8.4988e-05
1510   0.0970466    0.197863    0.713476  7.16031e-05
1520   0.0962755    0.197178     0.54545  8.40142e-05
1530   0.0953663     0.19637     1.34295  9.51253e-05
1540    0.094373    0.195488     1.51069  3.93678e-05
1550    0.094579     0.19567     1.38447  1.90284e-05
1560   0.0939925    0.195149     1.40566  9.15676e-05
1570   0.0927476    0.194044     1.42635  7.11914e-05
1580   0.0925686    0.193885     1.74093  9.06166e-05
1590   0.0909353    0.192434     1.76189  0.000155296
1600   0.0894627    0.191125      1.0695  0.000124053
1610   0.0884542     0.19023     0.73347  0.000158789
1620   0.0862869    0.188304    0.901435  0.000143944
1630   0.0855753    0.187672     1.46763  9.74603e-05
1640   0.0843377    0.186573      1.0898  9.90368e-05
1650   0.0835946    0.185913     1.27879  5.08934e-05
1660   0.0833199    0.185668     1.40453  6.48931e-05
1670   0.0822967     0.18476    0.480795  3.72693e-05
1680   0.0825745    0.185006    0.627659  8.29026e-06
1690   0.0821309    0.184612     1.23632  8.33247e-05
1700    0.080908    0.183526    0.669635  4.86907e-05
1710   0.0811571    0.183747    0.732363  3.07754e-05
1720   0.0802925    0.182979     1.44599  5.03089e-05
1730   0.0801509    0.182853     1.00546  2.53446e-05
1740   0.0797856    0.182529     1.17332  2.25995e-05
1750    0.079699    0.182452    0.816315  4.36652e-05
1760   0.0789123    0.181753    0.459777  7.59628e-05
1770   0.0781797    0.181102   -0.128131  1.8613e-05
1780     0.07854    0.181422   -0.862697  -1.78032e-05
1790   0.0785358    0.181419     0.14462  2.01046e-05
1800   0.0781379    0.181065   -0.275405  5.53451e-05
1810   0.0774289    0.180435   -0.212533  4.56009e-05
1820   0.0772259    0.180255    0.165208  5.84472e-05
1830   0.0762599    0.179397    0.543175  0.000110856
1840   0.0750088    0.178285    0.438122  8.98775e-05
1850   0.0744624      0.1778    0.648145  -1.0483e-05
1860   0.0752184    0.178472    0.626634  -1.32665e-05
1870   0.0747277    0.178036    0.815454  3.77718e-05
1880    0.074463      0.1778    0.269707  7.62824e-05
1890   0.0732021     0.17668   0.0809491  6.07427e-05
1900   0.0732481    0.176721    0.311232  1.67698e-05
1910   0.0728667    0.176382    0.164204  4.24828e-05
1920   0.0723985    0.175966    0.269297  4.25808e-05
1930    0.072015    0.175626    0.311027  8.99229e-05
1940      0.0706    0.174369     0.70991  8.2919e-05
1950   0.0703567    0.174153     1.08751  4.87626e-05
1960   0.0696248    0.173502    0.520763  1.58135e-05
1970   0.0700404    0.173872    0.646505  2.02339e-05
1980   0.0692201    0.173143    0.562882  3.89341e-05
1990   0.0692617     0.17318    0.394753  2.7553e-05
2000    0.068669    0.172653    0.856548  5.64523e-05
2010   0.0681327    0.172177    0.982619  3.20315e-05
2020   0.0680284    0.172084    0.919461  5.81846e-05
2030    0.066969    0.171143      1.0873  9.88424e-05
2040   0.0660516    0.170328     1.25539  6.23763e-06
2050   0.0668442    0.171032    0.919481  -4.15768e-05
2060   0.0668831    0.171067    0.961355  -6.81952e-06
2070   0.0669806    0.171154     1.12909  5.14191e-05
2080   0.0658547    0.170153    0.730519  8.06484e-05
2090   0.0653676    0.169721    0.499744  6.92155e-05
2100   0.0644704    0.168924     1.50702  7.22852e-05
2110   0.0639219    0.168436    0.961519  1.83281e-05
2120   0.0641038    0.168598     1.00298  1.40224e-05
2130   0.0636415    0.168187    0.646239  -6.54124e-06
2140   0.0642347    0.168714    0.813671  1.26164e-05
2150   0.0633892    0.167963     1.17031  0.000121445
2160   0.0618058    0.166556    0.855811  0.000152652
2170   0.0603361    0.165251    0.939659  8.66637e-05
2180   0.0600725    0.165017    0.960432  6.48113e-05
2190   0.0590399    0.164099     2.15681  3.83008e-05
2200   0.0593065    0.164336     1.42188  2.21921e-05
2210   0.0585961    0.163705     1.71557  5.62953e-05
2220   0.0581806    0.163336     1.08583  8.0215e-05
2230   0.0569918     0.16228     1.84176  4.46893e-05
2240   0.0572868    0.162542     1.84143  -2.35708e-05
2250   0.0574632    0.162699     1.73607  2.40648e-05
2260   0.0568055    0.162114     1.37931  0.00012107
2270   0.0550418    0.160548    0.518938  9.73899e-05
2280   0.0548577    0.160384     0.74961  6.03419e-05
2290   0.0538349    0.159476     0.98057  4.2475e-05
2300   0.0540082    0.159629    0.959387  1.86602e-05
2310   0.0534617    0.159144    0.560688  6.37237e-05
2320   0.0527337    0.158497    0.329975  8.79411e-05
2330   0.0517029    0.157582    0.371787  8.21279e-05
2340   0.0510912    0.157038    0.644599  3.41192e-05
2350   0.0510205    0.156975    0.434454  -3.50829e-06
2360   0.0511613      0.1571    0.853986  4.03365e-05
2370   0.0502138    0.156259   0.0148596  3.88647e-05
2380    0.050384     0.15641     0.41366  -5.34285e-05
2390   0.0512824    0.157208    0.140623  -4.74546e-05
2400   0.0513331    0.157253    0.497407  -1.72378e-05
2410   0.0516271    0.157514    0.581236  1.46957e-05
2420   0.0510392    0.156992    0.350154  9.69671e-05
2430   0.0496878    0.155791   -0.090377  7.42888e-05
2440   0.0495534    0.155672   -0.237446  3.02486e-05
2450   0.0490828    0.155254    0.287098  5.63128e-05
2460   0.0484272    0.154672   0.0143676  4.57352e-05
2470   0.0481681    0.154441  -0.0694403  6.58179e-05
2480   0.0471108    0.153502    0.434638  5.51898e-05
2490   0.0470643    0.153461      0.2872  3.38776e-05
2500   0.0464333      0.1529    0.874821  8.47448e-05
2510   0.0453694    0.151955    0.475999  0.000114248
2520   0.0441483     0.15087    0.224595  0.000108371
2530    0.043202     0.15003    0.056446  8.70269e-05
2540   0.0424078    0.149324  -0.00648704  9.03649e-05
2550   0.0413947    0.148424     0.41321  8.40891e-06
2560   0.0422396    0.149175    0.895634  2.40924e-05
2570   0.0409129    0.147996      1.0637  0.000107978
2580     0.04008    0.147256     1.23156  7.71564e-05
2590   0.0393697    0.146625    0.790541  5.55344e-05
2600   0.0389694     0.14627    0.517483  3.38582e-05
2610   0.0386926    0.146024    0.244712  2.45932e-05
2620   0.0384775    0.145833    0.286893  3.40505e-05
2630   0.0380116    0.145419  -0.0701986  9.05436e-05
2640   0.0366666    0.144224   0.0557286  1.85344e-05
2650   0.0376409     0.14509  -0.0497336  -1.68327e-06
2660   0.0367003    0.144254   -0.196638  4.85431e-05
2670     0.03667    0.144227   -0.763404  6.92163e-05
2680    0.035316    0.143024   -0.469553  0.000100879
2690   0.0346524    0.142435  -0.00771653  4.90589e-05
2700   0.0343348    0.142153    0.243913  1.75623e-05
2710   0.0343012    0.142123    0.222648  -1.56444e-05
2720   0.0346477    0.142431    0.306436  1.92557e-05
2730   0.0339161    0.141781   -0.322894  3.3533e-05
2740    0.033977    0.141835   -0.197233  4.79989e-05
2750   0.0329561    0.140928   -0.574892  5.92072e-05
2760   0.0327929    0.140783   -0.155011  -3.63015e-05
2770   0.0336821    0.141573   -0.322976  -2.03485e-05
2780   0.0331998    0.141144    -1.12058  2.90979e-05
2790   0.0331002    0.141056   -0.449047  8.68851e-05
2800   0.0314621    0.139601    -1.20432  8.38054e-05
2810   0.0314241    0.139567    -1.05748  -2.67118e-05
2820   0.0319964    0.140075   -0.449047  -2.19103e-05
2830   0.0318623    0.139956   -0.323037  -1.71849e-05
2840   0.0323401    0.140381   -0.890213  1.18518e-05
2850   0.0316252    0.139746   -0.617135  6.99636e-05
2860   0.0309408    0.139138   -0.449252  2.16207e-05
2870   0.0311928    0.139361     0.28513  -2.03762e-05
2880   0.0313483      0.1395  -0.0927955  2.49874e-05
2890   0.0306931    0.138918   -0.302613  8.83687e-05
2900   0.0295809     0.13793   -0.869236  7.55686e-05
2910   0.0291817    0.137575    -1.31007  7.09456e-05
2920    0.028162    0.136669    -1.37311  8.90498e-05
2930   0.0274007    0.135993    -1.28897  2.72267e-05
2940   0.0276175    0.136185    -1.07936  3.22832e-05
2950    0.026755    0.135419    -0.84834  4.04882e-05
2960   0.0268077    0.135466    -1.35209  5.54414e-05
2970   0.0256462    0.134434   -0.596526  0.00012125
2980   0.0243827    0.133312   -0.491822  0.000106772
2990   0.0235108    0.132537   -0.680703  3.45897e-05
3000   0.0236909    0.132697   -0.240131  8.92326e-05
3010   0.0217261    0.130952   -0.513066  0.000115774
3020   0.0213755     0.13064   -0.261232  6.9878e-05
3030   0.0203285     0.12971   -0.135366  5.51193e-05
3040   0.0202731    0.129661   -0.261703  3.89246e-06
3050   0.0202507    0.129641    0.115977  5.37716e-05
3060   0.0191976    0.128706   -0.177772  7.04978e-05
3070   0.0188407    0.128389   -0.177895  3.57388e-05
3080   0.0184829    0.128071   -0.555657  -2.09197e-05
3090   0.0192591     0.12876   -0.576655  8.45362e-07
3100    0.018466    0.128056   0.0950604  8.77951e-05
3110   0.0175032      0.1272   -0.408506  3.77306e-05
3120   0.0177113    0.127385    -0.57686  -2.7558e-05
3130   0.0180544     0.12769   -0.471992  4.97282e-05
3140   0.0167168    0.126502   -0.891545  0.000100273
3150   0.0160489    0.125908   -0.849918  3.48379e-05
3160     0.01602    0.125883    -1.10188  2.14707e-05
3170   0.0156195    0.125527   -0.891976  0.000104395
3180   0.0139321    0.124028    -1.39593  8.59701e-05
3190   0.0139001       0.124   -0.808311  8.12553e-05
3200    0.012307    0.122584   -0.745419  8.64801e-05
3210   0.0121705    0.122463   -0.115741  8.56984e-06
3220   0.0121356    0.122432     0.05206  2.9053e-05
3230   0.0115894    0.121947   -0.262769  6.83503e-05
3240   0.0107686    0.121218   -0.241627  7.02399e-05
3250   0.0101846    0.120699   -0.682548  5.84864e-05
3260  0.00959889    0.120179    -1.43803  8.0948e-05
3270  0.00856569    0.119261   -0.850451  7.77181e-05
3280  0.00804453    0.118798    -1.69015  7.28302e-05
3290  0.00710908    0.117967    -1.18634  7.4742e-05
3300  0.00654969     0.11747    -1.66907  7.32651e-05
3310  0.00564378    0.116665   -0.913281  3.54653e-05
3320  0.00584038     0.11684    -1.01839  -2.48763e-05
3330  0.00614131    0.117107   -0.536052  9.69705e-06
3340  0.00564644    0.116667   -0.283931  4.60962e-05
3350  0.00521938    0.116288    -0.70373  2.01812e-05
3360  0.00524281    0.116309   -0.514685  -2.32236e-05
3370  0.00568385    0.116701   -0.137128  2.20448e-05
3380  0.00480192    0.115917   -0.955544  2.02647e-05
3390  0.00527856    0.116341   -0.788071  1.16919e-05
3400  0.00456808    0.115709   -0.703956  9.88788e-06
3410   0.0050808    0.116165    -1.10317  3.80623e-05
3420  0.00380683    0.115033    -1.16573  0.000104765
3430  0.00298551    0.114304    -1.37553  5.58755e-05
3440  0.00268933     0.11404    -1.35467  4.02366e-05
3450  0.00218078    0.113589    -1.24987  1.38876e-05
3460  0.00241157    0.113794   -0.872023  1.61576e-06
3470  0.00214846     0.11356    -1.18695  8.65123e-05
3480  0.000681326    0.112257     -1.7115  7.78259e-05
3490  0.000591946    0.112177    -1.33388  -3.46928e-06
3500  0.000750712    0.112318   -0.935284  6.76407e-05
3510  -0.000760869    0.110975   -0.767114  3.74563e-05
3520  1.58514e-06    0.111653   -0.830354  -3.25877e-06
3530  -0.000695693    0.111033    -1.08202  1.09023e-05
3540  -0.00021646    0.111459   -0.263773  -6.23045e-05
3550  0.000550397     0.11214   -0.956507  -2.66468e-05
3560  0.000316475    0.111933    -1.16614  1.62511e-05
3570  0.000225375    0.111852    -1.31337  -2.68137e-05
3580  0.000852748    0.112409    -1.25089  2.71483e-05
3590  -0.000317591    0.111369    -1.71228  3.79092e-05
3600  9.45634e-05    0.111735    -1.01971  -6.98385e-06
3610  -0.000177913    0.111493   -0.851824  -1.06733e-05
3620  0.000308029    0.111925   -0.578622  1.83315e-05
3630  -0.000544543    0.111168     -1.2503  1.1023e-05
3640  8.75687e-05    0.111729   -0.851496  2.38933e-05
3650  -0.00102241    0.110743   -0.641699  0.000100255
3660  -0.00191754    0.109948   -0.578725  -6.93815e-06
3670  -0.000883646    0.110866   -0.768282  -2.50625e-05
3680  -0.00141629    0.110393   -0.725897  3.14127e-05
3690  -0.0015119    0.110308     -1.1036  4.07025e-05
3700  -0.00223034     0.10967   -0.725753  4.33612e-07
