Time   C(t)   
ps   
0           1           1  7.68907e-10   0.0439284
10    0.562187    0.882077    -0.16816   0.0225928
20    0.548145    0.878295     1.04066  0.00125709
30    0.537046    0.875306   -0.298447  0.00101602
40    0.527824    0.872822    0.877671  0.000905162
50    0.518942     0.87043   -0.265165  0.000692543
60    0.513974    0.869091   -0.167937  0.000467518
70    0.509592    0.867911    0.452893  0.000426722
80    0.505439    0.866793   -0.298032  0.000582947
90    0.497933    0.864771   -0.363734  0.000757416
100    0.490291    0.862712    -1.24482  0.000519446
110    0.487544    0.861973     0.35592  0.000484724
120    0.480596    0.860101    -1.40791  -3.6259e-05
130    0.488269    0.862168   -0.985712  -7.76649e-05
140     0.48215     0.86052     0.41942  0.00071487
150    0.473972    0.858317   0.0929545  0.00082459
160    0.465658    0.856078   -0.461504  0.00047688
170    0.464434    0.855748    0.093688  0.000713354
180    0.451391    0.852235   -0.624211  0.000334011
190    0.457754    0.853949   -0.462078  -8.12486e-05
200    0.453016    0.852673  -0.0375231  0.000311106
210    0.451532    0.852273    -1.05014  0.000336269
220     0.44629    0.850861   -0.690677  0.000403355
230    0.443465      0.8501   0.0927631  0.000422363
240    0.437843    0.848586    -0.59211  0.000368588
250    0.436093    0.848114    -0.16781  0.000156777
260    0.434708    0.847741   -0.723097  0.000272669
270     0.43064    0.846646     -1.1152  0.000449803
280    0.425711    0.845318   -0.201155  0.000596987
290      0.4187     0.84343    0.224453  0.000152494
300    0.422662    0.844497    0.123971  0.000153413
310    0.415632    0.842603   -0.462844  0.00034896
320    0.415682    0.842617  -0.0707725  0.00041734
330    0.407285    0.840355   -0.560838  0.00065064
340     0.40267    0.839112    0.158401  3.25307e-05
350    0.406634     0.84018    0.777636  0.000106741
360    0.400535    0.838537    0.386138  0.000401549
370    0.398603    0.838017   -0.365042  0.00016876
380     0.39716    0.837628  -0.0384484  0.000273831
390    0.393127    0.836542    0.843592  0.000169446
400    0.393771    0.836715    0.744833  8.3594e-05
410    0.391455    0.836091     0.38582  0.000404969
420    0.385671    0.834534   -0.136538  0.00039333
430    0.383588    0.833973    0.418208  0.00036954
440     0.37828    0.832543   -0.365838  0.000314304
450    0.377302    0.832279     1.29932  0.000371067
460    0.370859    0.830544    0.157539  0.000340573
470    0.370491    0.830445     1.69222  0.000254479
480     0.36577    0.829173     1.03897  0.000180034
490     0.36689    0.829475     0.28789  8.72999e-05
500    0.364024    0.828703    0.940279  0.000236984
510     0.36215    0.828198    0.287539  0.000250064
520    0.359022    0.827356   0.0264558  0.000450568
530    0.353139    0.825771    0.320374  0.000344942
540    0.352123    0.825498    0.450851  0.000114122
550    0.350856    0.825156    0.157061  0.000202154
560     0.34808    0.824409    0.352825  0.000146011
570    0.347936     0.82437     1.07085  -0.000111234
580    0.350305    0.825008     1.00509  -9.24572e-05
590    0.349785    0.824868     1.29872  0.000474024
600    0.340825    0.822454     1.72464  0.00046837
610    0.340418    0.822345    0.743557  -0.000186628
620    0.344557     0.82346    0.645787  -4.78446e-05
630    0.341375    0.822603     1.75585  0.000223707
640    0.340083    0.822255     1.06974  0.000243258
650     0.33651    0.821292   -0.824631  0.000288038
660    0.334322    0.820703    0.677505  0.000225234
670    0.332005    0.820079    0.743366  0.000111388
680    0.332094    0.820103     1.03687  0.000436129
690    0.323282     0.81773   -0.203196  0.000156401
700    0.328966     0.81926    0.841168  -0.000269483
710    0.328672    0.819181    0.481358  0.000278278
720    0.323401    0.817761     1.10228  0.000323424
730    0.322204    0.817439    0.971455  6.22615e-05
740    0.322156    0.817426     1.26502  0.000171126
750    0.318781    0.816517     1.10184  0.000414795
760     0.31386    0.815192     1.20015  0.00013987
770    0.315984    0.815764     1.52639  -0.000129224
780    0.316444    0.815888    0.024064  1.82793e-05
790    0.315618    0.815665     1.65633  0.000320745
800    0.310029     0.81416    0.351008  0.000166558
810    0.312287    0.814768     1.29773  -0.000226086
820    0.314551    0.815378      1.1334  0.000173704
830    0.308813    0.813832      1.5911  0.000432234
840    0.305906    0.813049     1.06913  0.000239165
850     0.30403    0.812544    0.513395  0.00013613
860    0.303184    0.812316     1.98295  -3.85389e-05
870      0.3048    0.812751     2.08012  0.000201599
880    0.299152     0.81123     1.03614  0.000286101
890    0.299078     0.81121     2.34225  -0.000109719
900    0.301346    0.811821     1.88368  0.00024837
910    0.294111    0.809872     1.85203  0.000346182
920    0.294423    0.809956     1.39426  0.000301681
930    0.288077    0.808247    0.415401  0.000125596
940    0.291911     0.80928     1.98209  -4.37289e-05
950    0.288952    0.808483     1.03473  0.000152174
960    0.288867     0.80846     1.19776  4.78998e-05
970    0.287994    0.808225     0.74158  5.45159e-05
980    0.287777    0.808166     1.42687  0.000343749
990    0.281119    0.806373    0.872249  0.000245516
1000    0.282867    0.806844     0.34919  -0.000227614
1010    0.285671    0.807599    0.086735  0.000121358
1020    0.280439     0.80619    0.969732  0.000444593
1030    0.276779    0.805204     1.32897  0.000247484
1040     0.27549    0.804857     1.09992  -0.000281122
1050    0.282402    0.806719     1.13129  -0.000261404
1060    0.280718    0.806265   -0.141418  0.000188389
1070    0.278634    0.805704    0.805304  0.000454241
1080    0.271633    0.803818    0.414126  0.000448386
1090    0.269666    0.803288    0.709096  0.000110415
1100    0.269425    0.803223   -0.107785  -6.91324e-05
1110    0.271049    0.803661     2.04674  -0.000129181
1120    0.272008    0.803919     1.09922  -0.000169466
1130    0.274438    0.804574     1.35983  0.000150912
1140     0.26899    0.803106    0.511513  0.000518781
1150    0.264063    0.801779     0.77266  0.00012491
1160    0.266492    0.802433     1.32731  -5.55232e-05
1170    0.265173    0.802078      1.2297  0.000266318
1180    0.261165    0.800999     2.50381  0.00011898
1190    0.262794    0.801437    0.674475  -4.86299e-05
1200    0.262138    0.801261    0.836894  -8.43108e-06
1210    0.262962    0.801483    0.967404  0.000247861
1220    0.257181    0.799925     1.19655  0.000396526
1230    0.255032    0.799347     1.13123  0.00012055
1240     0.25477    0.799276     1.49043  3.29733e-05
1250    0.254372    0.799169     2.17632  0.000107527
1260    0.252619    0.798697     3.15617  0.000182357
1270    0.250725    0.798187     2.17626  0.000298227
1280    0.246655     0.79709     2.17623  0.000353121
1290    0.243663    0.796284     1.39225  8.85956e-05
1300    0.244883    0.796613      1.8496  -4.04529e-05
1310    0.244472    0.796502     2.07744  0.000361817
1320    0.237646    0.794664     1.91486  0.000341834
1330    0.237635    0.794661     2.73107  3.53403e-05
1340     0.23694    0.794474     2.27378  -3.99545e-05
1350    0.238434    0.794876     2.79556  0.000131416
1360    0.234311    0.793766     2.73082  1.48155e-05
1370    0.238138    0.794796     2.24014  -0.000259468
1380    0.239501    0.795163     2.17457  0.000393031
1390    0.230277    0.792679     3.05728  0.000166225
1400    0.236176    0.794268      2.3704  0.000195049
1410    0.226376    0.791628      2.8939  0.000449826
1420     0.22718    0.791845     2.50171  -0.000101176
1430      0.2284    0.792173     2.56623  9.92507e-05
1440    0.225195     0.79131     2.07667  0.000210009
1450      0.2242    0.791042      3.2848  7.18988e-05
1460    0.223757    0.790923     3.08884  0.000342819
1470    0.217343    0.789195      3.0568  0.000246035
1480    0.218836    0.789597     2.10852  -6.6001e-05
1490    0.218663    0.789551     2.50084  0.000114807
1500     0.21654    0.788979     3.21903  0.000393926
1510    0.210785    0.787429     2.63222  0.000129369
1520    0.213952    0.788282     3.15374  8.12821e-05
1530    0.209159    0.786991     2.72932  0.000437843
1540    0.205196    0.785923     2.79511  0.000326785
1550    0.202623    0.785231     2.76218  -2.29813e-05
1560    0.205655    0.786047     2.76119  -0.000163205
1570    0.205887     0.78611      2.3697  0.000286233
1580    0.199931    0.784505     3.54511  0.000279529
1590    0.200297    0.784604     3.15317  4.79661e-05
1600    0.198971    0.784247     3.15365  -0.000121358
1610    0.202724    0.785258     3.11944  0.000161224
1620    0.195747    0.783378     3.08798  0.000479291
1630    0.193138    0.782676     2.85916  0.000317835
1640     0.18939    0.781666     3.90438  0.000190844
1650    0.189321    0.781648     3.60992  2.82817e-05
1660    0.188824    0.781514     3.08705  0.000319727
1670    0.182927    0.779925     3.90467  0.000206302
1680    0.184698    0.780403     3.05498  0.000193036
1690    0.179066    0.778886      3.3819  0.000107417
1700     0.18255    0.779824     2.66314  -3.45439e-05
1710    0.179757    0.779072     3.05489  7.88868e-06
1720    0.182392    0.779781     2.43368  1.53579e-05
1730     0.17945    0.778989     2.95607  -2.07797e-05
1740    0.182808    0.779893     3.24931  0.000187647
1750    0.175697    0.777978     3.64234  0.000352711
1760    0.175754    0.777993     3.44645  -0.00019267
1770     0.17955    0.779016     3.44473  0.000232005
1780    0.171114    0.776744     3.41298  0.000404903
1790    0.171452    0.776835      3.2497  4.54873e-05
1800    0.170204    0.776499     3.51068  -1.96062e-05
1810    0.171844     0.77694     3.21686  8.18126e-05
1820    0.168568    0.776058     4.16413  4.55201e-05
1830    0.170934    0.776695     4.06533  3.86931e-05
1840    0.167794    0.775849     3.70607  0.000285448
1850    0.165225    0.775158     3.34651  0.000322626
1860    0.161341    0.774111     3.31454  0.000257731
1870     0.16007    0.773769     3.18368  -4.77329e-05
1880    0.162296    0.774369     4.32623  0.000244442
1890    0.155181    0.772452     3.34718  0.000244442
1900    0.157407    0.773052     4.13078  -6.9122e-05
1910    0.156564    0.772825     4.58747  0.000208969
1920    0.153228    0.771926     4.65311  0.000407448
1930    0.148415     0.77063     4.32734  0.000386392
1940      0.1455    0.769845     4.98011  0.000225654
1950    0.143902    0.769414     4.39196  -3.15346e-05
1960     0.14613    0.770015     4.26052  -5.34758e-05
1970    0.144971    0.769702     4.52135  0.000322703
1980    0.139676    0.768276     5.56741  7.93561e-05
1990    0.143384    0.769275     4.03132  0.000124522
2000    0.137186    0.767605     4.88107  0.000509487
2010    0.133194     0.76653     5.24059  0.000325447
2020    0.130677    0.765852     4.19584  5.14843e-05
2030    0.132165    0.766253      4.3582  -6.71297e-05
2040     0.13202    0.766214     4.48922  -7.4809e-05
2050    0.133661    0.766656     4.25989  0.00020846
2060     0.12785    0.765091     4.35814  4.42259e-05
2070    0.132776    0.766418     5.30473  0.000179603
2080    0.124258    0.764123     4.52122  0.000358852
2090    0.125599    0.764485     4.58642  -0.000126779
2100    0.126794    0.764806     3.93323  -0.000299688
2110    0.131593    0.766099     3.89912  0.000173097
2120    0.123332    0.763874     4.97772  0.000390862
2130    0.123776    0.763993     5.33696  9.86531e-05
2140    0.121359    0.763342     4.94501  0.000498467
2150    0.113807    0.761308      4.5538  6.89555e-05
2160     0.11998    0.762971     3.96444  -0.000111477
2170    0.116036    0.761909     5.23874  0.000561436
2180    0.108751    0.759947     5.30505  0.000395896
2190    0.108118    0.759776     5.59852  -2.01158e-05
2200    0.109153    0.760055     5.14097  7.87254e-05
2210    0.106544    0.759352     5.56581  -0.000187691
2220    0.112907    0.761066     4.91129  -0.000119012
2230    0.108924    0.759993     4.48708  0.000589585
2240    0.101116     0.75789     4.84753  -2.03259e-05
2250     0.10933    0.760103     4.29081  -0.000225809
2260    0.105632    0.759106     4.06265  0.000255374
2270    0.104223    0.758727     4.02982  -2.76729e-05
2280    0.106185    0.759255     4.12756  -5.82449e-05
2290    0.105388    0.759041     4.74759  0.000202927
2300    0.102127    0.758162       4.846  -1.9994e-05
2310    0.105788    0.759148     5.10648  4.97583e-05
2320    0.101131    0.757894     4.78116  0.000273244
2330    0.100323    0.757676     5.33559  8.86839e-05
2340   0.0993578    0.757417     4.58434  -7.36136e-05
2350    0.101795    0.758073     4.87772  -0.000135554
2360    0.102069    0.758147     5.30183  0.000290704
2370   0.0959811    0.756507     5.04138  0.00053965
2380   0.0912759     0.75524      5.8911  -3.45223e-05
2390   0.0966715    0.756693     5.43285  6.73179e-05
2400   0.0899296    0.754877     4.81294  0.000191487
2410   0.0928418    0.755661     4.74711  0.000223917
2420   0.0854512    0.753671     4.71469  0.000380206
2430   0.0852377    0.753613      4.3553  -0.000401506
2440   0.0934813    0.755834     4.81122  -0.000143155
2450   0.0881008    0.754385     4.09348  0.000232459
2460   0.0888322    0.754582     5.07294  5.2657e-05
2470   0.0870476    0.754101     5.04011  0.000296701
2480   0.0828981    0.752983     4.97549  3.7089e-05
2490   0.0863059    0.753901     5.03982  -9.64511e-05
2500   0.0848272    0.753503      4.9096  0.000393075
2510   0.0784444    0.751784     5.04125  0.000211746
2520   0.0805922    0.752362     5.10571  -0.000167597
2530   0.0817963    0.752686     4.74625  0.000157274
2540   0.0774468    0.751515     4.06077  0.000220929
2550   0.0773777    0.751496      4.5823  5.47152e-05
2560   0.0763525     0.75122      3.9623  0.000397446
2570   0.0694288    0.749355     4.32131  8.69025e-05
2580   0.0746144    0.750752     4.02743  -8.77988e-05
2590   0.0711848    0.749828      4.0601  6.33791e-05
2600   0.0733468    0.750411     4.97453  -0.00016045
2610   0.0743938    0.750693     3.66778  8.78319e-05
2620   0.0715902    0.749937     3.24396  0.000296657
2630   0.0684606    0.749095     3.76612  0.000112373
2640   0.0693427    0.749332     3.83147  -0.000104484
2650   0.0705503    0.749657     3.24325  -0.000145103
2660   0.0722448    0.750114     3.47153  -4.04749e-05
2670   0.0713598    0.749875     3.01411  0.000323223
2680   0.0657803    0.748373     3.30851  6.46513e-05
2690   0.0700668    0.749527     3.99405  -0.00025086
2700   0.0707975    0.749724     3.47067  0.00030043
2710   0.0640582    0.747909     2.68777  4.05412e-05
2720   0.0699867    0.749506     3.24188  1.71393e-05
2730   0.0637154    0.747816     3.63453  0.000318045
2740   0.0636258    0.747792     2.94841  -0.000113447
2750   0.0659844    0.748428     2.94816  -0.000342564
2760   0.0704771    0.749638     2.62089  0.00015609
2770   0.0628626    0.747587     2.45847  9.83436e-05
2780   0.0685102    0.749108     1.67344  -0.000220697
2790   0.0672765    0.748776     2.65341  0.000279794
2800   0.0629143    0.747601     2.00121  -2.43537e-05
2810   0.0677636    0.748907     1.64073  -0.000155692
2820   0.0660282    0.748439     2.32694   0.0002068
2830   0.0636276    0.747793     2.52319  -0.000197893
2840    0.069986    0.749505     2.13013  8.62777e-07
2850   0.0636103    0.747788     2.42436  0.000174093
2860   0.0665042    0.748568     1.28114  -0.000181771
2870   0.0672457    0.748767     2.03217  0.000191763
2880   0.0626689    0.747535     2.32717  0.000258517
2890   0.0620754    0.747375     1.93427  -0.000257465
2900   0.0678182    0.748922     1.80312  -5.73264e-05
2910   0.0632219    0.747684     1.70605  0.000318056
2920   0.0614571    0.747208     2.48927  0.000118149
2930   0.0608589    0.747047     2.84905  6.83246e-05
2940   0.0600906     0.74684     1.86943  8.53091e-05
2950   0.0591528    0.746588     2.65277  0.000169589
2960   0.0566988    0.745927     2.06545  -1.53247e-05
2970   0.0594593     0.74667     2.78309  -0.00013302
2980   0.0593592    0.746643     3.33838  4.3739e-05
2990   0.0585845    0.746434     2.45662  0.000263695
3000   0.0540853    0.745223     3.11035  -9.99922e-05
3010   0.0605843    0.746973     3.30545  -0.000201301
3020   0.0581114    0.746307     3.40366  1.33887e-06
3030   0.0605575    0.746966     3.72959  6.97631e-05
3040   0.0567161    0.745931     3.20749  0.000214313
3050   0.0562713    0.745811     3.30494  0.000402867
3060   0.0486587    0.743761      2.0649  7.03275e-05
3070   0.0548647    0.745433     3.20726  0.000139958
3080   0.0458596    0.743007     3.27351  -4.92271e-05
3090   0.0558493    0.745698     2.68439  0.000260929
3100    0.040641    0.741601     2.81672  0.000337209
3110   0.0491051    0.743881     2.45605  -0.000469012
3120   0.0500213    0.744128     2.61901  0.000201246
3130   0.0450802    0.742797     2.22771  -4.02426e-05
3140   0.0508261    0.744345      2.4227  1.22929e-05
3150   0.0448343    0.742731     2.74987  0.000383648
3160   0.0431531    0.742278     2.75016  -2.23508e-05
3170   0.0452813    0.742851     2.32506  0.000255717
3180   0.0380388    0.740901     3.43624  0.000281874
3190   0.0396439    0.741333      2.4886  -0.000143355
3200   0.0409059    0.741673     2.06401  -0.000292021
3210   0.0454843    0.742906      3.6965  0.000318665
3220   0.0345326    0.739956     2.35815  0.000423359
3230   0.0370171    0.740625     3.01096  4.03088e-05
3240   0.0337264    0.739739     2.58669  0.000118957
3250   0.0346379    0.739985     2.65137  -0.000143985
3260   0.0366061    0.740515     3.43519  0.000207552
3270   0.0304869    0.738867     2.12876  0.000225245
3280   0.0321012    0.739301     3.04306  -0.000126437
3290   0.0330156    0.739548     2.78165  0.000332595
3300   0.0254493     0.73751     3.33771  0.000138276
3310   0.0302501    0.738803     2.94458  0.000175066
3320    0.021948    0.736567     2.48825  0.000343272
3330   0.0233847    0.736954     2.71681  -0.000117231
3340   0.0242926    0.737198     3.79408  -0.000126536
3350   0.0259154    0.737635     3.56506  0.000256503
3360   0.0191626    0.735816     3.30427  0.000354913
3370   0.0188171    0.735723     3.23892  0.000204487
3380   0.0150728    0.734715     3.04306  6.14647e-05
3390   0.0175878    0.735392     3.43481  2.62566e-05
3400   0.0145477    0.734573     4.02248  -0.000216637
3410   0.0219206    0.736559     3.98908  -0.000396505
3420   0.0224778    0.736709     3.59675  0.000349756
3430   0.0149254    0.734675     3.69583  0.000548767
3440   0.0115025    0.733753     3.50022  0.000144008
3450   0.0120453    0.733899     3.46697  7.23413e-05
3460   0.0100556    0.733363     2.97713  9.04432e-05
3470   0.0102364    0.733412     2.81366  9.99699e-05
3480  0.00805624    0.732825      2.8793  0.000209278
3490  0.00605086    0.732285     2.84624  7.32929e-05
3500  0.00659038     0.73243     3.14038  7.19214e-07
3510  0.00603648    0.732281     3.10806  -0.000108988
3520  0.00877013    0.733017     2.78102  -0.000228055
3530   0.0105976    0.733509     2.38856  0.000357745
3540  0.00161523     0.73109     2.61793  0.000422308
3550  0.00215143    0.731234     3.10742  -0.000237604
3560  0.00636732     0.73237      3.3685  -0.000311727
3570  0.00838597    0.732914      2.9428  0.000175885
3580  0.00284961    0.731423     3.20551  0.000185102
3590  0.00468393    0.731917     2.81309  -6.35005e-05
3600  0.00411962    0.731765     3.43302  8.43576e-05
3610  0.00299677    0.731462      3.6621  -0.000119588
3620  0.00651138    0.732409     3.62885  0.000335826
3630  -0.00371974    0.729653     3.20503  0.000158945
3640  0.00333248    0.731553     3.26977  -0.000389357
3650   0.0040674    0.731751     3.04066  -0.000185633
3660  0.00704514    0.732553     4.24876  0.000188145
3670  0.000304502    0.730737     3.20417  0.000394093
3680  -0.000836716     0.73043      3.8899  0.000226849
3690  -0.00423248    0.729515     3.23713  0.000330758
3700  -0.00745188    0.728648     3.85764  -3.52633e-05
3710  -0.00352722    0.729705     4.18372  -0.000261095
3720  -0.00222999    0.730054     3.49789  0.000134448
3730  -0.00621617    0.728981     3.39984  0.000172289
3740  -0.00567577    0.729126     3.46541  0.000116379
3750  -0.00854375    0.728354     3.36722  0.000201887
3760  -0.00971351    0.728039      3.9878  -7.28834e-05
3770  -0.00708608    0.728746     3.69337  -3.47544e-05
3780  -0.00901843    0.728226     4.28162  -8.29302e-05
3790  -0.00542748    0.729193     4.15038  -0.00017822
3800  -0.00545403    0.729186     4.96643  0.000308695
3810  -0.0116014     0.72753     3.95481  0.000414552
3820  -0.0137451    0.726953      3.9221  0.000176361
3830  -0.0151286     0.72658     3.75876  -0.000188222
3840  -0.00998062    0.727967     3.82308  -8.24213e-05
3850  -0.0134802    0.727024     3.69312  0.00048551
3860  -0.0196908    0.725351     3.75885  0.00030334
3870   -0.019547     0.72539     3.56219  -0.00019817
3880  -0.0157274    0.726419     3.72538  -0.000111289
3890  -0.0173212     0.72599     3.69238  -3.44667e-05
3900  -0.0150381    0.726605     4.05156  -1.48267e-05
3910  -0.0170247     0.72607     3.98646  4.2046e-06
3920  -0.0151222    0.726582     3.43057  -0.000161224
3930  -0.0138002    0.726938     3.92009  9.22357e-05
3940  -0.0169669    0.726085     3.92079  0.000268265
3950  -0.0191655    0.725493     3.92034  0.000318277
3960  -0.0233324    0.724371      3.4633  0.000211215
3970  -0.0233898    0.724355     4.21484  9.41387e-05
3980  -0.0252152    0.723863      3.7899  6.47398e-05
3990  -0.0246846    0.724006     3.59382  0.000371156
4000  -0.0326383    0.721864     3.69248  9.48802e-05
4010  -0.0265822    0.723495     3.29952  -0.00016108
4020  -0.0294167    0.722732     2.67971  0.000125286
4030  -0.0290879     0.72282     2.87461  -0.000241621
4040  -0.0245843    0.724033     3.42971  6.64106e-05
4050  -0.0304161    0.722463      2.6463  0.000195337
4060   -0.028491    0.722981     3.72413  -0.000132843
4070  -0.0277592    0.723178     3.03789  -0.0004534
4080   -0.019423    0.725424     2.61244  -0.000203868
4090  -0.0236819    0.724276      3.1677  0.000185766
4100  -0.0231384    0.724423     3.42935  0.000247076
4110  -0.0286234    0.722945     2.93977  0.000277614
4120  -0.0286906    0.722927     3.72366  8.74336e-05
4130   -0.030372    0.722474     3.23388   5.726e-05
4140  -0.0298359    0.722619      3.9199  -0.000215674
4150  -0.0260586    0.723636     3.00521  -0.000256602
4160  -0.0247038    0.724001     3.36378  2.66771e-05
4170  -0.0265921    0.723493     2.61286  -1.43178e-05
4180  -0.0244174    0.724078     3.10232  -3.43339e-05
4190  -0.0259054    0.723678     3.00467  0.000179647
4200  -0.0280104    0.723111      3.2654  0.000118791
4210  -0.0282813    0.723038     2.93919  -0.000187957
4220  -0.0242513    0.724123     2.64445  4.78328e-05
4230  -0.0292379     0.72278     3.29776  0.000273377
4240  -0.0297188     0.72265     2.87301  -0.000240149
4250  -0.0244349    0.724074     3.42744  0.000161767
4260  -0.0329541    0.721779     3.52681  0.000326443
4270  -0.0309638    0.722315     2.97098  -2.34351e-05
4280  -0.0324854    0.721905     3.46085  -8.59952e-05
4290  -0.0292439    0.722778     3.91728  0.000298449
4300  -0.0384544    0.720298     2.51397  0.000392057
4310   -0.037085    0.720666     3.13435  -0.000262356
4320  -0.0332073    0.721711     2.87273  -0.000148212
4330  -0.0341208    0.721465     3.49295  8.09718e-05
4340  -0.0348267    0.721275     3.52563  -4.44803e-05
4350  -0.0332312    0.721704      3.5905  7.1102e-05
4360  -0.0362488    0.720892     4.44009  0.000102471
4370  -0.0352806    0.721152     3.59027  0.00029285
4380  -0.0421058    0.719314     2.96992  0.000250948
4390  -0.0402996    0.719801     3.49254  -1.17272e-06
4400  -0.0420823     0.71932     3.03518  0.00027393
4410  -0.0457781    0.718325     3.39467  -0.00012844
4420  -0.0395135    0.720012     3.65496  -0.000319362
4430  -0.0393909    0.720045     3.32881  0.000392378
4440  -0.0473611    0.717899     3.46028  0.000510416
4450  -0.0495992    0.717296     3.16578  -3.22428e-05
4460  -0.0467162    0.718072     3.19795  -0.000256713
4470   -0.044465    0.718679     3.29604  -4.32078e-05
4480  -0.0458521    0.718305     3.68795  9.59644e-05
4490  -0.0463843    0.718162     3.88365  -0.000420294
4500  -0.0374462    0.720569     3.75222  6.43415e-05
4510  -0.0476711    0.717815     3.75295  0.000386956
4520  -0.0451853    0.718485     3.29495  -1.65962e-07
4530  -0.0476678    0.717816      3.7855  0.000303008
4540  -0.0512455    0.716852     4.17744  8.67697e-05
4550  -0.0494032    0.717349     3.71983  -0.000151875
4560   -0.048208     0.71767     3.71954  0.000381822
4570  -0.0570396    0.715292     3.49184  0.000174746
4580  -0.0517029    0.716729     3.65467  -0.000239142
4590  -0.0522568     0.71658      3.8834  -0.000284452
4600  -0.0460138    0.718261     3.42505  8.85623e-05
4610   -0.054028    0.716103     4.01333  0.000175631
4620  -0.0495264    0.717315      3.8826  -0.00025252
4630  -0.0489776    0.717463     3.71884  0.000453112
4640  -0.0585887    0.714874     3.45801  0.000531263
4650  -0.0596029    0.714601      3.9482  -0.000175531
4660  -0.0550781     0.71582     3.58798  2.43314e-05
4670  -0.0600895     0.71447      4.2419  0.000568816
4680  -0.0664544    0.712756     3.52362  -9.81443e-05
4690  -0.0581266    0.714999     3.52269  -0.000208847
4700  -0.0622774    0.713881     3.71865  0.00028162
4710   -0.063759    0.713482     4.04556  5.87428e-05
4720  -0.0634523    0.713564     3.94741  0.000148998
4730   -0.066739    0.712679     4.07836  0.000137911
4740  -0.0662105    0.712822      3.8169  7.11463e-05
4750  -0.0681619    0.712296     4.01317  1.47052e-05
4760  -0.0665046    0.712742     4.40486  -0.000358509
4770  -0.0609917    0.714227     4.07715  -3.05608e-05
4780  -0.0658934    0.712907     4.37145  0.00036611
4790  -0.0683139    0.712255     4.40457  0.000299378
4800   -0.071881    0.711294     4.53518  -0.000281388
4810  -0.0626862    0.713771     3.81591  -0.00024691
4820  -0.0669428    0.712624     5.02496  0.000495158
4830  -0.0725893    0.711103      4.3718  -7.88905e-06
4840   -0.066785    0.712667     4.01199  -0.000271208
4850  -0.0671652    0.712564     4.01145  0.000349126
4860  -0.0737675    0.710786     4.33894  0.000326808
4870  -0.0737013    0.710804     4.01206  2.80604e-05
4880  -0.0743287    0.710635     3.45702  0.000236697
4890  -0.0784353    0.709529     3.55537  -0.000238711
4900  -0.0695545    0.711921     3.71769  -0.000343096
4910  -0.0715734    0.711377     3.75033  0.000493697
4920  -0.0794285    0.709261      3.9468  0.000319882
4930   -0.077971    0.709654     3.26056  -0.000204521
4940   -0.075338    0.710363     3.48896  -0.00035759
4950  -0.0708192     0.71158      4.1418  0.00012283
4960  -0.0777946    0.709701     3.39116  0.000157407
4970  -0.0739673    0.710732     3.58674  -0.000171083
4980   -0.074373    0.710623     3.68486  8.79206e-05
4990  -0.0757258    0.710259     3.61931  0.000346924
