Time   Number   
ps   
0          33          45
10          31          43
20          33          41
30          33          43
40          33          47
50          32          40
60          33          51
70          34          48
80          34          46
90          35          45
100          31          37
110          34          44
120          35          41
130          32          48
140          34          44
150          33          41
160          31          43
170          35          43
180          35          39
190          31          39
200          30          40
210          34          42
220          32          44
230          34          40
240          32          36
250          33          39
260          32          36
270          35          43
280          32          44
290          33          43
300          32          40
310          33          41
320          35          41
330          26          42
340          28          46
350          35          39
360          29          39
370          30          44
380          29          39
390          31          43
400          31          39
410          31          43
420          30          40
430          36          44
440          36          42
450          35          43
460          33          45
470          33          41
480          32          44
490          31          47
500          28          48
510          31          43
520          31          47
530          31          45
540          31          45
550          31          45
560          28          50
570          33          43
580          31          43
590          31          43
600          29          43
610          32          44
620          32          44
630          29          47
640          33          49
650          31          43
660          33          39
670          34          38
680          29          43
690          32          40
700          31          51
710          32          48
720          28          42
730          33          45
740          32          44
750          30          46
760          29          41
770          33          37
780          30          42
790          31          43
800          30          48
810          29          41
820          29          45
830          31          47
840          31          37
850          31          45
860          33          51
870          32          42
880          33          43
890          32          42
900          30          38
910          28          46
920          35          45
930          34          40
940          34          40
950          29          43
960          33          45
970          31          43
980          30          44
990          34          42
1000          32          40
1010          31          43
1020          33          39
1030          31          39
1040          32          44
1050          31          43
1060          35          37
1070          31          41
1080          31          45
1090          32          48
1100          29          45
1110          34          38
1120          30          42
1130          35          41
1140          32          46
1150          33          41
1160          31          47
1170          29          43
1180          29          43
1190          33          41
1200          35          47
1210          30          44
1220          33          39
1230          34          42
1240          33          45
1250          31          47
1260          29          45
1270          35          39
1280          31          43
1290          30          42
1300          32          42
1310          35          39
1320          31          45
1330          31          41
1340          35          39
1350          33          41
1360          33          41
1370          32          44
1380          34          42
1390          31          33
1400          29          41
1410          33          43
1420          32          38
1430          33          39
1440          31          39
1450          29          43
1460          32          36
1470          33          41
1480          31          41
1490          29          43
1500          31          37
1510          33          41
1520          34          44
1530          31          47
1540          33          43
1550          33          43
1560          33          41
1570          30          44
1580          35          43
1590          29          41
1600          29          45
1610          35          37
1620          29          39
1630          35          41
1640          32          40
1650          30          46
1660          33          39
1670          34          42
1680          31          41
1690          32          44
1700          34          38
1710          29          41
1720          29          45
1730          31          41
1740          33          41
1750          29          45
1760          30          42
1770          33          43
1780          32          46
1790          31          37
1800          31          41
1810          33          43
1820          31          45
1830          32          42
1840          28          44
1850          33          45
1860          30          44
1870          32          38
1880          36          46
1890          34          46
1900          35          41
1910          35          41
1920          31          49
1930          33          45
1940          34          44
1950          32          44
1960          33          41
1970          33          43
1980          32          42
1990          35          43
2000          31          39
2010          33          45
2020          33          39
2030          34          42
2040          32          46
2050          29          43
2060          33          39
2070          31          47
2080          35          45
2090          35          39
2100          28          44
2110          31          39
2120          30          40
2130          31          41
2140          33          43
2150          32          40
2160          33          45
2170          28          42
2180          31          41
2190          32          38
2200          31          43
2210          32          40
2220          30          40
2230          30          32
2240          33          43
2250          33          41
2260          32          40
2270          35          43
2280          32          36
2290          34          40
2300          33          39
2310          30          38
2320          32          40
2330          33          41
2340          31          35
2350          34          42
2360          30          30
2370          31          35
2380          34          34
2390          30          42
2400          30          44
2410          31          37
2420          30          34
2430          31          37
2440          33          39
2450          29          41
2460          32          40
2470          31          43
2480          30          40
2490          28          36
2500          32          38
2510          30          42
2520          30          44
2530          34          38
2540          34          38
2550          32          38
2560          33          35
2570          31          35
2580          29          39
2590          31          33
2600          28          34
2610          29          39
2620          30          32
2630          28          36
2640          32          38
2650          27          33
2660          30          38
2670          25          35
2680          26          40
2690          30          34
2700          29          33
2710          28          40
2720          29          33
2730          31          39
2740          29          35
2750          28          34
2760          32          32
2770          29          37
2780          26          38
2790          29          35
2800          30          38
2810          28          34
2820          31          37
2830          30          34
2840          31          33
2850          27          35
2860          25          33
2870          31          41
2880          28          40
2890          28          36
2900          27          35
2910          29          35
2920          27          37
2930          26          30
2940          26          34
2950          24          36
2960          28          36
2970          30          36
2980          28          30
2990          31          35
3000          23          33
3010          24          36
3020          27          31
3030          30          36
3040          32          38
3050          29          31
3060          30          40
3070          32          38
3080          30          38
3090          27          43
3100          24          40
3110          30          36
3120          27          41
3130          29          33
3140          28          36
3150          26          36
3160          27          35
3170          28          32
3180          29          35
3190          30          36
3200          25          31
3210          27          35
3220          30          34
3230          30          38
3240          29          31
3250          29          37
3260          32          40
3270          30          34
3280          30          36
3290          30          38
3300          29          35
3310          27          35
3320          25          31
3330          26          28
3340          25          41
3350          27          33
3360          26          36
3370          26          32
3380          24          30
3390          26          32
3400          26          42
3410          28          34
3420          28          34
3430          30          34
3440          31          35
3450          28          34
3460          26          40
3470          33          41
3480          29          35
3490          33          35
3500          30          38
3510          28          34
3520          30          30
3530          25          35
3540          30          36
3550          30          32
3560          28          38
3570          26          36
3580          26          36
3590          27          33
3600          25          39
3610          30          36
3620          25          33
3630          29          33
3640          30          36
3650          27          33
3660          29          33
3670          26          38
3680          26          34
3690          27          29
3700          25          39
3710          30          36
3720          26          38
3730          26          34
3740          30          34
3750          23          33
3760          30          40
3770          29          37
3780          32          34
3790          29          35
3800          33          37
3810          31          39
3820          29          41
3830          31          35
3840          27          39
3850          32          32
3860          29          35
3870          29          41
3880          31          39
3890          33          33
3900          28          36
3910          32          34
3920          33          35
3930          28          42
3940          31          31
3950          28          36
3960          34          38
3970          33          35
3980          31          31
3990          31          37
4000          31          37
4010          32          36
4020          34          38
4030          29          41
4040          33          39
4050          32          34
4060          30          38
4070          30          36
4080          28          40
4090          29          39
4100          31          39
4110          30          36
4120          31          43
4130          28          34
4140          30          40
4150          33          35
4160          26          40
4170          28          34
4180          28          40
4190          30          38
4200          29          37
4210          32          38
4220          31          37
4230          32          38
4240          30          38
4250          32          36
4260          31          41
4270          32          40
4280          30          42
4290          32          36
4300          27          39
4310          30          38
4320          29          39
4330          27          37
4340          34          40
4350          28          34
4360          32          34
4370          32          40
4380          32          38
4390          32          36
4400          31          43
4410          29          35
4420          33          33
4430          32          36
4440          34          38
4450          32          36
4460          31          39
4470          28          36
4480          30          40
4490          29          35
4500          30          40
4510          29          39
4520          31          39
4530          31          37
4540          30          36
4550          31          35
4560          31          37
4570          28          40
4580          32          42
4590          30          38
4600          28          34
4610          30          32
4620          33          35
4630          31          37
4640          31          33
4650          30          38
4660          32          38
4670          31          35
4680          31          37
4690          29          41
4700          31          37
4710          29          37
4720          29          39
4730          29          39
4740          31          39
4750          31          41
4760          31          33
4770          30          38
4780          28          40
4790          27          35
4800          31          35
4810          33          35
4820          31          37
4830          32          46
4840          34          42
4850          32          40
4860          31          47
4870          30          36
4880          30          40
4890          35          43
4900          32          36
4910          33          41
4920          32          42
4930          35          39
4940          33          37
4950          33          41
4960          32          38
4970          28          38
4980          32          36
4990          31          35
5000          29          39
5010          32          36
5020          31          37
5030          32          36
5040          32          42
5050          32          42
5060          34          38
5070          29          43
5080          30          40
5090          30          40
5100          27          39
5110          32          34
5120          29          43
5130          29          35
5140          31          39
5150          33          37
5160          32          40
5170          32          34
5180          32          44
5190          27          43
5200          29          39
5210          29          37
5220          31          35
5230          30          38
5240          29          37
5250          31          39
5260          32          38
5270          34          42
5280          33          41
5290          34          40
5300          34          36
5310          32          38
5320          32          36
5330          34          40
5340          29          39
5350          31          35
5360          34          40
5370          30          42
5380          33          35
5390          30          34
5400          33          39
5410          33          39
5420          34          40
5430          32          38
5440          29          41
5450          30          42
5460          32          42
5470          31          37
5480          31          39
5490          33          39
5500          31          37
5510          34          38
5520          33          39
5530          31          45
5540          31          45
5550          31          35
5560          32          40
5570          29          41
5580          30          40
5590          33          37
5600          34          40
5610          31          35
5620          30          42
5630          34          34
5640          33          43
5650          33          39
5660          31          39
5670          29          39
5680          34          38
5690          32          42
5700          33          41
5710          32          42
5720          32          40
5730          32          42
5740          31          37
5750          33          39
5760          31          41
5770          33          41
5780          34          42
5790          31          35
5800          31          39
5810          33          39
5820          30          42
5830          30          40
5840          29          37
5850          32          36
5860          31          43
5870          30          42
5880          31          37
5890          30          40
5900          29          39
5910          32          36
5920          26          36
5930          27          35
5940          33          39
5950          31          41
5960          33          39
5970          33          37
5980          32          36
5990          29          39
6000          30          42
6010          33          39
6020          30          34
6030          31          37
6040          30          40
6050          30          44
6060          31          41
6070          31          39
6080          30          42
6090          31          39
6100          32          40
6110          31          35
6120          27          39
6130          32          40
6140          33          37
6150          31          39
6160          30          40
6170          34          36
6180          29          43
6190          31          41
6200          32          38
6210          32          42
6220          30          36
6230          30          42
6240          30          32
6250          28          40
6260          31          39
6270          33          39
6280          34          38
6290          31          39
6300          29          43
6310          28          42
6320          33          39
6330          35          39
6340          33          39
6350          37          37
6360          33          41
6370          32          36
6380          30          38
6390          29          37
6400          33          33
6410          35          39
6420          33          35
6430          30          38
6440          34          38
6450          31          39
6460          35          37
6470          31          37
6480          34          42
6490          33          41
6500          36          38
6510          30          40
6520          32          40
6530          31          35
6540          34          38
6550          29          37
6560          32          42
6570          31          39
6580          34          40
6590          30          38
6600          32          40
6610          31          43
6620          31          41
6630          34          42
6640          30          32
6650          31          43
6660          27          37
6670          33          37
6680          35          37
6690          34          38
6700          27          37
6710          33          37
6720          34          34
6730          33          37
6740          33          41
6750          35          37
6760          33          33
6770          34          38
6780          33          39
6790          33          39
6800          36          40
6810          31          37
6820          32          42
6830          34          36
6840          34          36
6850          34          38
6860          35          37
6870          28          42
6880          32          38
6890          27          35
6900          27          39
6910          28          38
6920          28          36
6930          27          37
6940          32          40
6950          33          37
6960          33          39
6970          32          38
6980          30          34
6990          31          39
7000          31          35
7010          32          38
7020          30          38
7030          32          40
7040          31          37
7050          32          38
7060          33          37
7070          35          39
7080          35          35
7090          35          39
7100          28          44
7110          31          41
7120          29          39
7130          33          37
7140          31          37
7150          33          35
7160          31          37
7170          30          40
7180          28          44
7190          29          43
7200          30          42
7210          30          42
7220          34          40
7230          33          41
7240          36          40
7250          33          39
7260          33          39
7270          33          35
7280          33          39
7290          29          45
7300          34          40
7310          30          38
7320          28          40
7330          31          39
7340          32          40
7350          31          43
7360          32          40
7370          33          41
7380          37          45
7390          31          39
7400          37          41
7410          31          39
7420          34          40
7430          36          36
7440          32          36
7450          32          38
7460          35          41
7470          33          39
7480          31          43
7490          32          36
7500          35          39
7510          35          37
7520          35          41
7530          31          35
7540          33          37
7550          35          41
7560          34          38
7570          34          40
7580          33          39
7590          37          39
7600          34          36
7610          31          37
7620          36          38
7630          33          43
7640          35          41
7650          31          37
7660          33          41
7670          32          34
7680          33          45
7690          35          39
7700          34          42
7710          33          41
7720          36          36
7730          32          40
7740          34          40
7750          34          42
7760          31          43
7770          31          37
7780          35          41
7790          31          41
7800          35          37
7810          32          40
7820          35          37
7830          31          39
7840          36          40
7850          35          35
7860          33          37
7870          34          38
7880          33          35
7890          32          40
7900          34          40
7910          33          37
7920          33          37
7930          32          38
7940          33          41
7950          31          35
7960          33          39
7970          33          39
7980          33          39
7990          32          42
8000          32          40
8010          31          41
8020          33          39
8030          33          37
8040          31          37
8050          37          41
8060          31          35
8070          30          38
8080          31          41
8090          33          37
8100          34          38
8110          33          37
8120          31          37
8130          33          41
8140          31          39
8150          32          38
8160          30          38
8170          34          38
8180          32          42
8190          33          37
8200          33          39
8210          33          37
8220          30          40
8230          33          39
8240          31          37
8250          33          39
8260          30          40
8270          31          39
8280          29          39
8290          30          38
8300          33          35
8310          30          38
8320          28          36
8330          33          37
8340          30          36
8350          31          37
8360          25          39
8370          32          36
8380          28          32
8390          34          34
8400          26          40
8410          32          36
8420          33          37
8430          31          35
8440          32          38
8450          31          39
8460          34          38
8470          35          41
8480          29          35
8490          32          40
8500          35          35
8510          33          37
8520          34          40
8530          29          37
8540          30          36
8550          33          41
8560          33          37
8570          34          38
8580          34          38
8590          31          41
8600          33          39
8610          31          39
8620          29          39
8630          32          36
8640          32          36
8650          31          33
8660          28          38
8670          33          39
8680          33          37
8690          31          37
8700          30          36
8710          33          37
8720          30          38
8730          31          35
8740          31          37
8750          33          39
8760          28          34
8770          31          37
8780          31          37
8790          28          34
8800          32          38
8810          31          35
8820          33          39
8830          32          42
8840          31          39
8850          31          37
8860          30          38
8870          33          39
8880          30          42
8890          32          38
8900          32          32
8910          33          33
8920          33          35
8930          36          42
8940          34          44
8950          30          42
8960          33          39
8970          33          45
8980          33          37
8990          34          42
9000          30          36
9010          34          40
9020          31          35
9030          32          44
9040          32          38
9050          33          39
9060          33          37
9070          30          40
9080          33          35
9090          32          38
9100          36          40
9110          33          37
9120          33          35
9130          26          36
9140          30          44
9150          35          39
9160          30          36
9170          28          38
9180          32          38
9190          30          36
9200          29          37
9210          31          39
9220          31          43
9230          33          39
9240          31          43
9250          34          38
9260          32          36
9270          33          41
9280          32          36
9290          32          36
9300          32          44
9310          33          35
9320          33          39
9330          31          35
9340          33          35
9350          33          41
9360          33          37
9370          30          38
9380          31          37
9390          31          37
9400          33          35
9410          30          44
9420          32          42
9430          32          40
9440          33          37
9450          33          39
9460          32          40
9470          32          38
9480          33          39
9490          31          43
9500          31          43
9510          30          42
9520          33          37
9530          34          40
9540          32          44
9550          34          36
9560          35          41
9570          34          40
9580          31          35
9590          31          45
9600          32          40
9610          33          35
9620          34          40
9630          34          42
9640          32          48
9650          36          40
9660          33          37
9670          34          42
9680          36          40
9690          35          43
9700          34          42
9710          31          41
9720          35          39
9730          33          37
9740          32          40
9750          35          37
9760          29          43
9770          33          47
9780          36          38
9790          35          41
9800          36          38
9810          34          36
9820          29          41
9830          32          44
9840          33          43
9850          34          38
9860          34          38
9870          36          42
9880          31          43
9890          35          41
9900          34          44
9910          33          43
9920          34          40
9930          37          37
9940          34          40
9950          34          44
9960          33          45
9970          33          37
9980          29          39
9990          33          35
10000          31          43
