Time   C(t)   
ps   
0           1           1  5.8722e-10   0.0244291
10    0.760587    0.796365    0.238213   0.0135269
20    0.729462    0.769891   -0.409692   0.0026247
30    0.708093    0.751716    0.729527  0.00200242
40    0.689414    0.735828   -0.890445   0.0016652
50    0.674789    0.723389     1.04961  0.00151811
60    0.659051    0.710003    0.371462  0.00143187
70    0.646152    0.699031    -0.72349  0.00126998
80    0.633652    0.688399    0.292843   0.0012298
90    0.621556    0.678111    0.538207  0.00116968
100    0.610258    0.668501    0.476124  0.00113907
110    0.598775    0.658734    0.753688  0.00100339
120    0.590191    0.651432     1.33835  0.000947189
130    0.579831    0.642621     1.72363  0.000946322
140    0.571264    0.635334     1.92286  0.000852314
150    0.562785    0.628122     1.75279  0.000889158
160    0.553481    0.620209     2.78562  0.000812474
170    0.546535    0.614301    0.904634  0.000708818
180    0.539305    0.608151     2.41493  0.000667039
190    0.533194    0.602954     2.69106  0.000660393
200    0.526097    0.596917     2.27411  0.000643381
210    0.520327    0.592009     2.59702  0.000622195
220    0.513653    0.586332    0.792821  0.000666109
230    0.507005    0.580678    0.622478  0.000631115
240    0.501031    0.575596     1.11534  0.000641547
250    0.494174    0.569764     2.11786  0.000628319
260    0.488464    0.564908     2.76426  0.000607844
270    0.482017    0.559424     2.14811  0.000649133
280    0.475481    0.553865     2.48708  0.000607564
290    0.469865    0.549089     1.94632  0.000560412
300    0.464273    0.544332     1.57607  0.000543466
310    0.458996    0.539844     1.57566  0.000487041
320    0.454532    0.536047     1.02013  0.000512792
330     0.44874     0.53112     1.38947  0.000540322
340    0.443726    0.526855     1.43451  0.000589056
350    0.436959      0.5211    0.895601  0.000581975
360    0.432086    0.516955     1.18797  0.000465734
370    0.427644    0.513177     2.48241  0.000487864
380    0.422329    0.508656     2.43611  0.000427988
390    0.419085    0.505897     2.55818  0.000393087
400    0.414467    0.501969     1.83381  0.000425221
410     0.41058    0.498663     2.23413  0.000464894
420     0.40517    0.494061     1.23207  0.000424194
430    0.402096    0.491447     1.43175  0.000385451
440    0.397461    0.487504    0.691342  0.000421347
450    0.393669    0.484279     1.95438  0.000386971
460    0.389721    0.480921     2.58599  0.000425042
470    0.385169    0.477049     2.07746  0.00043609
480    0.380999    0.473503     1.92311  0.00035042
490     0.37816    0.471088     2.80111  0.000373605
500    0.373527    0.467147     1.75294  0.000359426
510    0.370972    0.464974      1.0888  0.000389268
520    0.365742    0.460525      1.9522  0.000353405
530    0.363904    0.458962     2.55239  0.000319752
540    0.359347    0.455086     2.56817  0.000442033
550    0.355063    0.451442      2.3368  0.000322965
560    0.352888    0.449592     1.67275  0.000305921
570    0.348945    0.446238     1.56517  0.000412633
580    0.344635    0.442572    0.871026  0.000375026
590    0.341444    0.439858     1.57988  0.000260918
600    0.339417    0.438134     1.27027  0.000269105
610    0.336062    0.435281     1.48676  0.000269657
620    0.334023    0.433547     2.28739  0.000326902
630    0.329524     0.42972     1.22382  0.000316206
640    0.327699    0.428168     1.91661  0.000242244
650    0.324679    0.425599     2.85663  0.000306146
660    0.321576     0.42296     2.91827  0.000313392
670    0.318411    0.420268     1.62248  0.000343491
680    0.314707    0.417117     2.16247  0.000319584
690    0.312019    0.414831     2.11599  0.000281221
700    0.309082    0.412333     2.23889  0.000283752
710    0.306344    0.410004     2.16152  0.000260589
720     0.30387      0.4079     2.13036  0.000219077
730    0.301963    0.406277      3.2398  0.000205316
740    0.299764    0.404407     2.82361  0.000197105
750    0.298021    0.402924     3.70156  0.000270352
760    0.294357    0.399808     3.76348  0.000283338
770    0.292354    0.398104     3.91703  0.000248444
780    0.289388    0.395582     3.34686  0.000245091
790    0.287452    0.393935     3.20742  0.00026782
800    0.284032    0.391026     3.30026  0.000274186
810    0.281969    0.389271     3.00679  0.000274846
820    0.278535     0.38635      3.2073  0.00024341
830      0.2771     0.38513     2.82191  0.000108838
840    0.276358    0.384499     3.03688  0.000214501
850     0.27281    0.381481     3.97756   0.0003039
860     0.27028    0.379329      3.4841  0.000273709
870    0.267336    0.376825     3.68433  0.000213078
880    0.266018    0.375704     3.83837  0.000205773
890    0.263221    0.373325     3.54514  0.00034339
900    0.259151    0.369863     2.55858  0.000284697
910    0.257527    0.368482     1.91116  0.000183098
920    0.255489    0.366748     3.05107  0.000229374
930    0.252939     0.36458     2.89711  0.000215156
940    0.251186    0.363088     1.75598  0.000217609
950    0.248587    0.360878     2.29542  0.000224879
960    0.246688    0.359263      2.0177  0.00023132
970    0.243961    0.356943     2.23346  0.000263184
980    0.241424    0.354786     2.51078  0.00022549
990    0.239451    0.353107     2.88076  0.000230951
1000    0.236805    0.350857     2.63356  0.000214694
1010    0.235157    0.349455     3.00339  0.000189584
1020    0.233014    0.347632     2.57176  0.00027978
1030    0.229561    0.344696     2.40235  0.000227025
1040    0.228473     0.34377     2.27832  0.000116838
1050    0.227225    0.342708     2.55545  0.000190386
1060    0.224665    0.340531     2.13908  0.000210586
1070    0.223013    0.339126     2.13886  0.000194164
1080    0.220782    0.337228     2.10762  0.000226385
1090    0.218485    0.335275     2.78589  0.000246828
1100    0.215846    0.333029      2.2928  0.000170618
1110    0.215073    0.332372     2.21483  0.000179131
1120    0.212263    0.329982     3.01631  0.00024434
1130    0.210186    0.328216     2.33785  0.000206923
1140    0.208124    0.326462     2.61487  0.000205377
1150    0.206078    0.324722     2.70719  0.000236861
1160    0.203387    0.322433      3.1548  0.000206257
1170    0.201953    0.321213     1.70544  0.000124585
1180    0.200896    0.320314     2.64517  0.00012793
1190    0.199395    0.319037     1.55054  0.000184434
1200    0.197207    0.317176     2.04381  0.000176825
1210    0.195858    0.316029     1.98175  0.000206527
1220    0.193076    0.313663     1.59677  0.000247198
1230    0.190914    0.311824     1.18006  0.000138664
1240    0.190303    0.311304     1.98103  0.00015737
1250    0.187767    0.309147     1.75005  0.000257866
1260    0.185146    0.306917     1.30331  0.000196546
1270    0.183836    0.305803     2.21207  0.000156566
1280    0.182014    0.304254     1.81155  0.000179185
1290    0.180252    0.302755     1.24109  0.00013072
1300      0.1794     0.30203       1.595  0.000120976
1310    0.177833    0.300697     1.04019  9.57422e-05
1320    0.177485    0.300402     1.02464  9.29482e-05
1330    0.175974    0.299116    0.654438  0.000208545
1340    0.173314    0.296854     1.45618  0.000123048
1350    0.173513    0.297023     1.81018  1.58772e-06
1360    0.173282    0.296827     1.11631  9.68888e-05
1370    0.171575    0.295375     0.42251  0.000175113
1380     0.16978    0.293848     1.43972  0.000143647
1390    0.168702    0.292931      1.9487  0.000117244
1400    0.167435    0.291854     0.97684  0.000103132
1410    0.166639    0.291177    0.807189  0.000117844
1420    0.165078    0.289849    0.683597  0.000136614
1430    0.163907    0.288853    0.806121  0.00014214
1440    0.162236    0.287431     1.08445  0.000165248
1450    0.160602    0.286042    0.591121  0.00015728
1460     0.15909    0.284755     0.93018  0.000106831
1470    0.158466    0.284224     1.19175  0.000109267
1480    0.156905    0.282897    0.421035  0.00015832
1490    0.155299    0.281531     1.29936  0.000175318
1500    0.153398    0.279914    0.574871  0.000123601
1510    0.152827    0.279428     1.05251  7.18102e-05
1520    0.151962    0.278693    0.728495  0.000112705
1530    0.150573    0.277511     1.65356  0.000154789
1540    0.148866     0.27606     1.76109  0.000145728
1550    0.147658    0.275032     1.69931  9.68218e-05
1560     0.14693    0.274413     0.88206  0.00011804
1570    0.145298    0.273024    0.604722  0.000166608
1580    0.143598    0.271578    0.142327  0.000165991
1590    0.141978      0.2702      0.7899  0.000134775
1600    0.140902    0.269286   -0.258904   8.974e-05
1610    0.140183    0.268674   0.0798532  0.000102656
1620    0.138849    0.267539   0.0799439  9.54851e-05
1630    0.138273     0.26705   -0.475078  6.82451e-05
1640    0.137484    0.266378   0.0950953   0.0001362
1650    0.135549    0.264733   0.0025292  0.000158738
1660     0.13431    0.263678    0.803832  7.73758e-05
1670    0.134002    0.263416    0.664803  9.57005e-05
1680    0.132396     0.26205   0.0329227  0.000148024
1690    0.131041    0.260898    0.341166  7.69675e-05
1700    0.130856    0.260741   -0.183537  0.00011566
1710    0.128728    0.258931   -0.229112  8.05378e-05
1720    0.129245    0.259371   -0.815372  4.66414e-05
1730    0.127795    0.258137  0.00159574  0.000134508
1740    0.126555    0.257083   -0.121831  8.76419e-05
1750    0.126043    0.256647   -0.661536  8.14345e-05
1760    0.124927    0.255697    -1.15505  0.000162274
1770    0.122797    0.253886    -1.18573  0.000107689
1780    0.122773    0.253865   -0.647076  8.43655e-05
1790     0.12111    0.252451   -0.446385  0.000114677
1800    0.120479    0.251915    -1.57217  0.000102053
1810    0.119069    0.250715    -1.41838  0.000154198
1820    0.117395    0.249292     -1.1405  0.000128582
1830    0.116497    0.248527    -1.51061  8.55602e-05
1840    0.115684    0.247836    -1.81932  0.000137856
1850     0.11374    0.246182    -1.35703  0.000126194
1860     0.11316    0.245689    -1.81985  0.000128751
1870    0.111165    0.243992    -1.86588  0.000144244
1880    0.110275    0.243236    -1.32653  3.6658e-05
1890    0.110432    0.243369    -1.38831  4.0064e-05
1900    0.109474    0.242554     -1.1112  0.00014951
1910    0.107442    0.240825    -1.04936  0.000112578
1920    0.107222    0.240639    -1.78985  5.26391e-05
1930    0.106389     0.23993    -1.68223  0.000141655
1940    0.104389    0.238229    -1.55875  0.000176011
1950    0.102869    0.236936    -1.66645  8.95523e-05
1960    0.102598    0.236706    -1.69755  5.12682e-05
1970    0.101843    0.236064    -1.12751  8.00531e-05
1980    0.100997    0.235344   -0.957879  7.80579e-05
1990    0.100282    0.234736   -0.742217  9.15162e-05
2000   0.0991669    0.233787    -0.98877  7.51056e-05
2010   0.0987799    0.233458    -1.34358  7.53485e-05
2020     0.09766    0.232505    -1.00433  0.000109893
2030    0.096582    0.231589    -1.17417  0.000122413
2040   0.0952117    0.230423    -1.15878  0.000120476
2050   0.0941725    0.229539    -1.68288  8.51318e-05
2060   0.0935091    0.228975    -1.02047  7.86886e-05
2070   0.0925987    0.228201    -1.28269  7.88558e-05
2080    0.091932    0.227633   -0.990049  8.24243e-05
2090   0.0909502    0.226798   -0.867089  9.04702e-05
2100   0.0901226    0.226094    -1.03608  9.51864e-05
2110   0.0890465    0.225179  -0.0497303  0.000143697
2120   0.0872486     0.22365    -1.36007  0.000101312
2130   0.0870203    0.223456    -1.25243  4.64935e-05
2140   0.0863187    0.222859   -0.928494  7.02269e-05
2150   0.0856157    0.222261    -1.39084  8.28434e-05
2160   0.0846619     0.22145    -1.11343  8.53062e-05
2170   0.0839096     0.22081    -0.92866  8.32479e-05
2180   0.0829969    0.220034    -1.22157  6.98641e-05
2190   0.0825123    0.219621     -1.0527  7.23481e-05
2200     0.08155    0.218803    -1.14464   6.002e-05
2210   0.0813119      0.2186   -0.528226  0.000102289
2220   0.0795042    0.217063   0.0267059  9.10431e-05
2230   0.0794911    0.217052   -0.621078  7.43166e-05
2240   0.0780178    0.215799   -0.451368  0.000109828
2250   0.0772945    0.215183   -0.667136  7.24178e-05
2260   0.0765695    0.214567   -0.266326  8.05866e-05
2270   0.0756828    0.213813   -0.436187  8.42385e-05
2280   0.0748847    0.213134    0.226689  7.53082e-05
2290   0.0741766    0.212531    0.534722  0.000116859
2300   0.0725475    0.211146   -0.498013  0.000137801
2310   0.0714206    0.210187    0.426748  7.94504e-05
2320   0.0709585    0.209794   -0.251656  5.54867e-05
2330   0.0703108    0.209243    0.149079  6.36756e-05
2340    0.069685    0.208711   0.0872827  8.81437e-05
2350    0.068548    0.207744   -0.112972  7.44741e-05
2360   0.0681955    0.207444  -0.0668692  5.38189e-05
2370   0.0674716    0.206828   -0.452287  6.3213e-05
2380   0.0669313    0.206369    0.102735  6.45578e-05
2390   0.0661804     0.20573   -0.190477  2.99849e-06
2400   0.0668713    0.206318    0.364063  -1.55941e-06
2410   0.0662116    0.205757    -0.14463  1.70469e-05
2420   0.0665304    0.206028    0.517613  3.35187e-05
2430   0.0655413    0.205187    0.548774  0.000111934
2440   0.0642917    0.204124    0.456042  0.000137996
2450   0.0627813    0.202839    0.378989  9.72651e-05
2460   0.0623464    0.202469   -0.129629  7.76269e-05
2470   0.0612288    0.201519  -0.0992051  0.00010604
2480   0.0602256    0.200665     0.10126  7.92341e-05
2490   0.0596441    0.200171   0.0394037  0.000106585
2500   0.0580939    0.198852   0.0708362  0.000123335
2510   0.0571774    0.198073    0.394126  4.68193e-05
2520   0.0571575    0.198056    0.362964  4.58302e-05
2530   0.0562608    0.197293     0.22422  9.33416e-05
2540   0.0552907    0.196468    0.394006  0.000132803
2550   0.0536048    0.195034    0.440394  7.72038e-05
2560   0.0537466    0.195154    0.563415  4.29684e-05
2570   0.0527454    0.194303    0.378402  4.89872e-05
2580   0.0527668    0.194321    0.178358  1.57604e-05
2590   0.0524302    0.194035  -0.0531626  -3.38294e-06
2600   0.0528345    0.194379    0.115825  -4.04669e-05
2610   0.0532395    0.194723    0.315868  3.97844e-05
2620   0.0520388    0.193702    0.731995  0.000120225
2630    0.050835    0.192678    0.223739  4.36062e-05
2640   0.0511667     0.19296    0.115223  1.01235e-05
2650   0.0506326    0.192506   0.0689996  5.71048e-05
2660   0.0500246    0.191989   -0.070121  5.72484e-05
2670   0.0494876    0.191532    0.330869  8.16116e-05
2680   0.0483924      0.1906    0.732041  3.70068e-05
2690   0.0487475    0.190902    0.469493  -4.04019e-05
2700   0.0492004    0.191288    0.253319  4.9321e-05
2710    0.047761    0.190063    0.392214  0.000134422
2720   0.0465119    0.189001     0.56206  8.49051e-05
2730   0.0460629    0.188619   0.0684275  5.22755e-05
2740   0.0454664    0.188112  -0.00888168  7.92658e-05
2750   0.0444776    0.187271   -0.409812  4.03503e-05
2760   0.0446594    0.187425   -0.795064  2.5928e-06
2770   0.0444258    0.187227     -1.0421  9.92995e-06
2780   0.0444608    0.187256   -0.579417  -1.70216e-05
2790   0.0447662    0.187516    -1.04243  4.80894e-05
2800    0.043499    0.186438    -1.02668  8.74937e-05
2810   0.0430163    0.186028   -0.394691  3.98215e-06
2820   0.0434194    0.186371   -0.641679  -2.55624e-05
2830   0.0435276    0.186463   -0.703325  4.9739e-05
2840   0.0424246    0.185524   -0.579853  0.000116608
2850   0.0411954    0.184479    -1.02677  8.09748e-05
2860   0.0408051    0.184147   -0.687857  -3.11583e-06
2870   0.0412577    0.184532   -0.842175  -3.05809e-06
2880   0.0408663    0.184199    -0.61103  0.000102672
2890   0.0392043    0.182785   -0.656771  6.92107e-05
2900   0.0394821    0.183022   -0.903866  2.33505e-05
2910   0.0387373    0.182388   -0.441772  7.71055e-05
2920     0.03794     0.18171  -0.00987549  7.23202e-05
2930   0.0372909    0.181158   -0.626723  7.75428e-05
2940   0.0363891    0.180391  -0.0254334  8.02539e-05
2950   0.0356858    0.179793  -0.0565952  9.05463e-05
2960   0.0345782    0.178851   -0.487784  0.000103351
2970   0.0336188    0.178035  0.00545714  7.59302e-05
2980   0.0330596    0.177559    0.206028  6.98721e-05
2990   0.0322213    0.176846    0.390649   0.0001244
3000   0.0305716    0.175443    0.513865  0.000125983
3010   0.0297017    0.174703   -0.241577  8.58294e-05
3020    0.028855    0.173983  -0.0103722  5.05193e-05
3030   0.0286913    0.173843    0.467311  8.63067e-05
3040   0.0271289    0.172515    0.266996  0.00010683
3050   0.0265547    0.172026    -0.19558  8.80955e-05
3060    0.025367    0.171016   -0.164464  9.85212e-05
3070   0.0245842     0.17035   -0.180007  9.75453e-05
3080    0.023416    0.169357    0.497975  9.01171e-05
3090   0.0227819    0.168817   -0.134266  6.73352e-05
3100   0.0220693    0.168211   -0.149613  9.19112e-05
3110   0.0209437    0.167254   -0.519502  0.000123037
3120   0.0196086    0.166118   0.0817275  4.22275e-05
3130   0.0200991    0.166535     0.18916  6.05264e-05
3140   0.0183981    0.165088   -0.411919  0.000118682
3150   0.0177255    0.164516    0.343718  -4.12989e-05
3160   0.0192241    0.165791   0.0960812  1.4449e-05
3170   0.0174365    0.164271   0.0195398  0.000138784
3180   0.0164484     0.16343    0.266575  0.000100278
3190   0.0154309    0.162565    0.281666  6.02635e-05
3200   0.0152431    0.162405   -0.350439  -2.06903e-06
3210   0.0154723      0.1626    -0.38124  1.35871e-05
3220   0.0149714    0.162174   -0.103781  3.71145e-05
3230     0.01473    0.161969   -0.720419  4.90468e-05
3240   0.0139904    0.161339    0.204297  5.70102e-05
3250   0.0135898    0.160999  -0.0267885  9.91328e-06
3260   0.0137922    0.161171   0.0654766  4.02522e-05
3270   0.0127848    0.160314    0.173301  0.000114038
3280   0.0115114    0.159231  -0.0576187  5.89504e-05
3290   0.0116058    0.159311   -0.026924  9.04254e-06
3300   0.0113306    0.159077   -0.505164  4.34328e-05
3310   0.0107371    0.158572   -0.196739  3.42642e-05
3320   0.0106453    0.158494  -0.0892321  3.70619e-05
3330  0.00999588    0.157942     0.52736  5.44025e-05
3340  0.00955723    0.157569    0.111248  4.25971e-05
3350  0.00914394    0.157217   -0.197236  5.33986e-05
3360  0.00848926     0.15666   -0.243685  3.75236e-05
3370  0.00839346    0.156579    -0.12077  3.36623e-05
3380  0.00781601    0.156088    0.418875  5.91773e-05
3390  0.00720992    0.155572    -0.21314  9.01811e-05
3400  0.00601239    0.154554   -0.136102  5.81936e-05
3410  0.00604604    0.154582      0.0795  2.21557e-05
3420  0.00556928    0.154177  -0.0440474  3.69866e-05
3430  0.00530631    0.153953    0.757527  2.90267e-05
3440  0.00498874    0.153683    0.217988  6.55771e-05
3450  0.00399477    0.152838   -0.167414  9.2802e-05
3460   0.0031327    0.152104   -0.260041  3.21163e-05
3470  0.00335245    0.152291   -0.799459  5.94463e-05
3480  0.00194378    0.151093   -0.799294  7.17334e-05
3490  0.00191778    0.151071   -0.969079  -6.91659e-06
3500  0.00208211    0.151211   -0.768689  -2.05501e-05
3510  0.00232878    0.151421   -0.445158  1.35397e-05
3520  0.00181131     0.15098    -1.06165  4.77119e-05
3530  0.00137454    0.150609    -0.62981  7.38909e-05
3540  0.000333496    0.149723   -0.198425  4.93788e-05
3550  0.000386965    0.149769   -0.167911  -4.51979e-05
3560  0.00123745    0.150492   -0.291639  -8.1298e-06
3570  0.000549561    0.149907   -0.383814  0.000102006
3580  -0.000802661    0.148757   -0.753854  9.95232e-05
3590  -0.0014409    0.148214   -0.306791  1.69218e-05
3600  -0.0011411    0.148469   -0.522844  8.73684e-06
3610  -0.00161564    0.148066     -1.0314  4.75376e-05
3620  -0.00209185    0.147661    -1.00053  4.77022e-05
3630  -0.00256969    0.147254    -0.84648  1.86238e-05
3640  -0.00246433    0.147344   -0.939047  -7.76628e-06
3650  -0.00241436    0.147386   -0.924091  3.68789e-05
3660  -0.0032019    0.146716   -0.184011  3.13454e-05
3670  -0.00304127    0.146853   -0.199585  1.33208e-05
3680  -0.00346832     0.14649    -0.77033  3.15416e-05
3690  -0.0036721    0.146316   -0.323057  2.88454e-05
3700  -0.00404523    0.145999    0.355151  5.42614e-05
3710  -0.00475733    0.145393   -0.353721  7.27197e-05
