Time   C(t)   
ps   
0           1           1  9.49995e-10   0.0353628
10    0.646031    0.904162    0.424106   0.0187051
20    0.625898    0.898711     0.70832  0.00204743
30    0.605082    0.893075   -0.269545  0.00174859
40    0.590926    0.889242    0.371016  0.00124606
50    0.580161    0.886327     1.13572  0.00102581
60     0.57041    0.883687    0.726249  0.000801566
70    0.564129    0.881987   0.0495185  0.000780764
80    0.554794    0.879459  -0.0579832  0.000979751
90    0.544534    0.876681   -0.164112  0.00111796
100    0.532435    0.873405   -0.555428  0.00115266
110    0.521481     0.87044    0.869364  0.000609171
120    0.520252    0.870107    0.601079  0.000383127
130    0.513819    0.868365    0.351749  0.000461829
140    0.511015    0.867606    0.315822  0.000446773
150    0.504883    0.865946   -0.609874  0.000509402
160    0.500827    0.864847  -0.00466678  0.00054315
170     0.49402    0.863004   -0.413807  0.000429733
180    0.492233     0.86252    0.724771  0.000463633
190    0.484748    0.860494    0.689262  0.000595301
200    0.480327    0.859297    0.636154  0.000531054
210    0.474126    0.857618   -0.182457  0.000443481
220    0.471457    0.856895  -0.0941529  0.000293463
230    0.468257    0.856029   -0.183344  0.000425538
240    0.462946    0.854591    0.208338  0.000426342
250     0.45973     0.85372    0.404074  0.000348212
260    0.455982    0.852705    0.528601  0.000457723
270    0.450576    0.851242    0.422333  0.000329809
280    0.449386     0.85092    0.706391  0.000327453
290    0.444027    0.849469   -0.272222  0.000506584
300    0.439254    0.848176  -0.0408367  0.000332055
310    0.437386     0.84767   -0.877516  0.000173727
320     0.43578    0.847236   -0.877655  0.000403205
330    0.429322    0.845487    0.225971  0.000500123
340    0.425777    0.844527   0.0299215  0.00028502
350    0.423621    0.843944   -0.130514  0.000262456
360    0.420528    0.843106   -0.522109  0.000426319
370    0.415095    0.841635   -0.379497  0.000487101
380    0.410786    0.840469     0.47478  0.000374509
390    0.407605    0.839607    0.368078  0.000171493
400    0.407356     0.83954   -0.113333  0.00011519
410    0.405301    0.838983    0.296277  0.000209004
420    0.403176    0.838408   -0.451681  0.000484459
430    0.395612     0.83636     1.13296  0.000401345
440    0.395149    0.836235    0.651684  0.000177337
450    0.392065      0.8354    0.438436  0.000285251
460    0.389444     0.83469     0.10021  0.000370063
470    0.384664    0.833396     0.74124  0.000428025
480    0.380884    0.832372    0.491683  0.000317645
490    0.378311    0.831676    0.562476  0.000271042
500    0.375463    0.830905    0.331282  0.000278351
510    0.372744    0.830168    0.135372  0.00029245
520    0.369614    0.829321     0.34902  0.000503248
530    0.362679    0.827443  -0.0244549  0.000314157
540    0.363331     0.82762    0.153075  5.69731e-05
550    0.361539    0.827135    0.241744  0.000281388
560    0.357703    0.826096   0.0998452  0.000281928
570    0.355901    0.825608    0.437637  0.000299616
580    0.351711    0.824474    0.134781  0.000484371
590    0.346213    0.822985    0.437828  0.000328256
600    0.345145    0.822696    0.829023  0.000288212
610    0.340449    0.821425    0.241709  0.000175709
620    0.341631    0.821745    0.134781  5.64337e-05
630     0.33932    0.821119   0.0992197  0.000392462
640    0.333782    0.819619   -0.576954  0.000290106
650    0.333518    0.819548   0.0988549  0.000201695
660    0.329748    0.818527    0.312989  0.00020535
670    0.329411    0.818436    0.170273  0.00027484
680    0.324251    0.817039    0.632939  0.000226969
690    0.324872    0.817207   0.0452427  0.000103489
700    0.322182    0.816479    0.312137  0.000328113
710     0.31831     0.81543    0.205331  0.000155818
720    0.319065    0.815635    0.472329  0.000253299
730    0.313244    0.814059    0.170186  0.000374871
740    0.311568    0.813605    0.917292  0.000188564
750    0.309472    0.813038    0.401137  0.00029659
760    0.305636    0.811999    0.205782  0.000349335
770    0.302486    0.811146     0.22319  1.93506e-05
780    0.305249    0.811894    -0.25843  -0.000102301
790    0.304532      0.8117    0.435708  0.000476512
800    0.295719    0.809314    0.721382  0.000337426
810    0.297783    0.809873   -0.293835  -6.3391e-05
820    0.296987    0.809657   -0.596395  0.000310832
830    0.291567     0.80819  0.00931619  0.000304328
840      0.2909    0.808009  -0.0618935  -5.96151e-05
850    0.292759    0.808512   -0.187029  -3.50803e-05
860    0.291602    0.808199  -0.0805173  0.000228442
870     0.28819    0.807275    0.258021  0.000260496
880    0.286392    0.806788    0.507074  0.000148323
890    0.285224    0.806472     0.91585  0.000339165
900    0.279608    0.804952    0.453845  0.000343215
910    0.278359    0.804614    0.275707  0.00017454
920    0.276118    0.804007    0.417918  0.000249147
930    0.273376    0.803264    0.222495  5.83827e-05
940     0.27495     0.80369   -0.382973  5.60284e-06
950    0.273264    0.803234    0.257222  9.41887e-05
960    0.273066     0.80318     0.25717  1.62691e-05
970    0.272939    0.803146   0.0790661  0.000112361
980    0.270819    0.802572    0.221521  0.000144579
990    0.270047    0.802363  -0.0631626  0.000141421
1000     0.26799    0.801806   0.0436265  5.60045e-05
1010    0.268927     0.80206    0.523977  -3.67194e-05
1020    0.268725    0.802005   0.0965428  0.000220738
1030    0.264512    0.800865    0.274751  0.000206847
1040    0.264588    0.800885    0.558826  -5.79193e-05
1050    0.265671    0.801178  -0.0108195  0.00015737
1060    0.261441    0.800033     0.48779  0.000283249
1070    0.260006    0.799644  -0.0638927  8.61526e-05
1080    0.259717    0.799566    0.345126  0.000147705
1090    0.257052    0.798845    0.274368  0.000259638
1100    0.254525     0.79816    0.648139  4.71443e-05
1110    0.256109    0.798589     0.68337  0.000141564
1120    0.251693    0.797394     1.09308  0.000170513
1130    0.252699    0.797666    0.825755  -4.98846e-05
1140    0.252691    0.797664     1.34181  8.78587e-05
1150    0.250941     0.79719    0.523073  0.000120606
1160    0.250279    0.797011    0.807635  0.000357162
1170    0.243798    0.795256    0.772682  0.000321323
1180    0.243853    0.795271    0.985704  -4.18827e-05
1190    0.244636    0.795483    0.308974  7.83488e-05
1200    0.242286    0.794847     0.50504  0.000155037
1210    0.241535    0.794643    0.949535  2.39186e-05
1220    0.241807    0.794717    0.967376  0.000104469
1230    0.239446    0.794078    0.700395  0.00036479
1240    0.234511    0.792742    0.736147  0.000101398
1250    0.237418    0.793529    0.646626  -2.6539e-05
1260    0.235042    0.792885    0.771379  9.08099e-05
1270    0.235602    0.793037  -0.0121406  0.000190546
1280    0.231231    0.791854     1.25194  0.000142785
1290    0.232746    0.792264    0.326294  -0.000125834
1300    0.233748    0.792535    0.752929  5.10842e-05
1310    0.231724    0.791987   0.0946134  0.000269204
1320    0.228364    0.791077    0.753676  0.000351262
1330    0.224699    0.790085    0.237816  0.000203776
1340    0.224288    0.789974    0.539542  8.56251e-05
1350    0.222986    0.789621    0.663808  0.000100628
1360    0.222276    0.789429    0.521578  7.85805e-05
1370    0.221415    0.789196    0.432249  4.90263e-05
1380    0.221295    0.789163    -0.13738  1.93834e-05
1390    0.221027    0.789091    0.129619  0.000172395
1400    0.217847     0.78823    0.521005  0.000307123
1410    0.214885    0.787428    0.218723  0.000124601
1420    0.215355    0.787555     0.98367  0.00016633
1430    0.211558    0.786527     1.07312  0.000282676
1440    0.209702    0.786024      1.3039  0.000230876
1450    0.206941    0.785277      1.1617  0.000148609
1460     0.20673     0.78522    0.983479  0.000220562
1470    0.202529    0.784082      1.0374  0.000352824
1480    0.199673    0.783309    0.378533  0.000138801
1490    0.199753    0.783331    0.752112  2.59221e-05
1500    0.199155    0.783169    0.449517  0.000158184
1510     0.19659    0.782474     0.98341  0.000113121
1520    0.196892    0.782556    0.484731  0.000159076
1530    0.193408    0.781613     0.46748  0.000109852
1540    0.194695    0.781961    0.324765  3.8217e-05
1550    0.192644    0.781406    0.448943  0.000182609
1560    0.191043    0.780972    0.164346  4.1388e-06
1570    0.192561    0.781383    0.448422  0.000229269
1580    0.186458    0.779731     1.57029  0.000256027
1590     0.18744    0.779997    0.021509  1.63347e-05
1600    0.186131    0.779643    0.947188  0.000100408
1610    0.185432    0.779453     1.08923  0.000211702
1620    0.181897    0.778496    0.520032  0.000311856
1630    0.179195    0.777765    0.929589  0.000147529
1640    0.178946    0.777697    0.626699  0.000113419
1650    0.176927     0.77715    0.644453  2.89492e-05
1660    0.178367    0.777541    0.786647  0.000152417
1670    0.173879    0.776325    0.359822  0.000129379
1680     0.17578     0.77684   -0.156872  6.82883e-05
1690    0.172513    0.775955    0.964282  0.000230458
1700    0.171171    0.775592   -0.139013  0.000138295
1710    0.169747    0.775206   -0.619399  1.45406e-05
1720     0.17088    0.775513   -0.175131  0.00014284
1730     0.16689    0.774433   -0.940253  0.000220618
1740    0.166468    0.774319   -0.175149  6.17504e-05
1750    0.165655    0.774099   -0.441851  -3.9351e-05
1760    0.167255    0.774532   -0.478004  0.000186946
1770    0.161916    0.773086    0.145288  0.000288521
1780    0.161484    0.772969    0.127707  4.06131e-06
1790    0.161835    0.773064    0.465742  7.45624e-05
1800    0.159993    0.772566    0.270162  9.81405e-05
1810    0.159872    0.772533      0.2342  0.000145593
1820    0.157081    0.771777    0.358553  4.36433e-05
1830    0.158999    0.772296   0.0555413  1.64554e-05
1840    0.156752    0.771688   -0.158019  0.000295885
1850    0.153082    0.770694    0.251608  0.000292627
1860    0.150899    0.770103    0.180641  6.04957e-05
1870    0.151872    0.770367    0.287204  2.91906e-05
1880    0.150316    0.769945    0.446979  0.000211228
1890    0.147647    0.769223    0.287135  0.000219517
1900    0.145925    0.768757    0.803099  6.93344e-05
1910     0.14626    0.768847    0.962978  9.35279e-05
1920    0.144055     0.76825     1.22984  0.000113484
1930    0.143991    0.768233     1.37188  4.62301e-05
1940     0.14313       0.768     1.49666  0.000122004
1950    0.141551    0.767572     1.35433  0.000138196
1960    0.140366    0.767252     1.12279  0.000250546
1970     0.13654    0.766216    0.802682  0.000206991
1980    0.136226    0.766131    0.553351  3.27975e-06
1990    0.136474    0.766198      1.0518  0.000171877
2000    0.132789      0.7652    0.855807  0.000208312
2010    0.132308     0.76507    0.855494  0.000261223
2020    0.127564    0.763785     1.05175  8.43808e-05
2030     0.13062    0.764613     1.46058  -6.40623e-05
2040    0.128846    0.764132    0.997723  0.000197954
2050    0.126661    0.763541    0.961988  8.11458e-05
2060    0.127223    0.763693     1.21127  1.66982e-05
2070    0.126327     0.76345     1.15748  -3.48985e-06
2080    0.127293    0.763712     1.24636  3.71709e-05
2090    0.125584    0.763249    0.908254  0.000167035
2100    0.123952    0.762807     1.79814  0.00019201
2110    0.121744    0.762209      1.6202  0.000127199
2120    0.121408    0.762119     2.17185  0.00021726
2130    0.117398    0.761033     1.79858  0.000168674
2140    0.118034    0.761205     1.44232  -1.05228e-05
2150    0.117609     0.76109     1.08591  -7.61036e-05
2160    0.119556    0.761617    0.960545  -2.69346e-05
2170    0.118148    0.761236    0.978752  0.000136941
2180    0.116818    0.760876     2.08212  0.000104392
2190     0.11606     0.76067     1.74375  -1.0534e-05
2200    0.117028    0.760933     1.86845  0.000121442
2210    0.113631    0.760013     1.45902  0.000439165
2220    0.108245    0.758555     1.85061  0.000204668
2230    0.109537    0.758905     1.65477  4.01761e-05
2240    0.107441    0.758337     1.88607  0.000106329
2250    0.107411    0.758329     1.72591  -9.37805e-06
2260    0.107629    0.758388     1.36953  0.000165075
2270    0.104109    0.757435     1.31647  0.000173562
2280    0.104158    0.757448        1.69  9.9197e-05
2290    0.102125    0.756898     1.81444  0.000203567
2300    0.100086    0.756346     1.85031  3.30105e-05
2310    0.101465    0.756719     1.29794  0.000179582
2320   0.0964948    0.755373     2.11749  0.000137766
2330   0.0987099    0.755973     2.20574  -4.99506e-05
2340   0.0974938    0.755644     1.47611  -0.000167717
2350    0.102064    0.756881     1.35077  2.52947e-07
2360   0.0974888    0.755642     1.72516  0.000386573
2370   0.0943328    0.754788     2.25935  0.000172879
2380   0.0940312    0.754706     1.81416  -2.04183e-05
2390   0.0947412    0.754898     1.83204  -5.84703e-05
2400   0.0952006    0.755023     2.47246  8.93675e-05
2410   0.0929538    0.754414     1.68962  -9.68743e-05
2420   0.0971381    0.755547     1.45724  -7.13486e-05
2430   0.0943808    0.754801     1.90259  0.000170061
2440   0.0937369    0.754627     2.09827  7.29997e-05
2450   0.0929208    0.754406      2.0092  -3.75789e-05
2460   0.0944884     0.75483     2.06268  3.0655e-05
2470   0.0923077     0.75424     2.24092  0.000137194
2480   0.0917446    0.754087      1.7424  3.50691e-05
2490   0.0916063     0.75405     1.90229  0.000116555
2500   0.0894134    0.753456     1.83107  0.000168069
2510   0.0882449     0.75314     1.91987  0.00021584
2520   0.0850966    0.752287     2.22282  -5.43866e-05
2530   0.0893327    0.753434     1.33218  -0.000127221
2540   0.0876411    0.752976     1.47489  0.00018229
2550   0.0856869    0.752447     1.27928  0.000187057
2560   0.0838999    0.751963     1.36779  8.38529e-05
2570   0.0840098    0.751993     1.59942  1.06771e-05
2580   0.0836864    0.751905     1.11813  0.000335598
2590   0.0772978    0.750176    0.745055  0.000353419
2600    0.076618    0.749992     1.35016  -9.26476e-05
2610   0.0791508    0.750677     1.45627  2.48212e-05
2620   0.0761216    0.749857     1.70569  0.000216159
2630   0.0748276    0.749507     1.97263  0.000164469
2640   0.0728322    0.748967     1.15383  7.75129e-05
2650   0.0732773    0.749087     2.15039  1.23393e-05
2660   0.0725854      0.7489     2.07946  0.000126154
2670   0.0707543    0.748404     1.29587  0.000240419
2680    0.067777    0.747598     1.70586  0.000205857
2690   0.0666371    0.747289     1.90151  6.58013e-05
2700    0.066461    0.747241     1.43867  0.000136533
2710   0.0639065     0.74655     1.52748  0.000127903
2720    0.063903    0.746549     2.09673  1.81071e-05
2730   0.0635443    0.746452      2.1325  2.26088e-05
2740   0.0634508    0.746426      2.3813  -4.82999e-05
2750   0.0645103    0.746713     1.95427  0.000120144
2760   0.0610479    0.745776     1.95415  0.000226825
2770   0.0599738    0.745485     2.23937  2.7496e-05
2780    0.060498    0.745627     1.68738  -0.000128157
2790    0.062537    0.746179     1.43775  -1.6929e-05
2800   0.0608366    0.745719     1.88318  0.000156852
2810   0.0593999     0.74533     2.11411  3.66209e-05
2820   0.0601041     0.74552     2.06069  5.92738e-05
2830   0.0582144    0.745009     1.91867  8.16295e-05
2840   0.0584716    0.745078     1.97173  1.91856e-05
2850   0.0578307    0.744905     2.22111  8.66596e-05
2860   0.0567384    0.744609     1.70504  7.78317e-05
2870   0.0562741    0.744483     2.16755  0.000123127
2880   0.0542758    0.743942     2.11399  0.000236303
2890    0.051548    0.743204     2.07867  3.80078e-05
2900   0.0535157    0.743737     2.29191  -2.50194e-05
2910   0.0520484    0.743339     2.18513  7.89436e-05
2920   0.0519368    0.743309     2.79029  -3.42544e-05
2930   0.0527335    0.743525     2.30942  0.000170325
2940   0.0485303    0.742387     2.86178  0.000161388
2950   0.0495058    0.742651     3.53776  5.27464e-05
2960   0.0474754    0.742101     2.98592  0.000207904
2970   0.0453477    0.741525     3.35992  -2.9147e-05
2980   0.0480583    0.742259     2.75422  -7.01489e-05
2990   0.0467507    0.741905      3.0214  0.000103567
3000    0.045987    0.741698      3.1104  9.93511e-05
3010   0.0447636    0.741367     3.34161  5.35389e-05
3020   0.0449162    0.741408     3.28801  1.70281e-05
3030   0.0444231    0.741275     3.76866  -0.000144381
3040   0.0478038     0.74219       3.768  -0.000102994
3050    0.046483    0.741832     3.37628  0.000187827
3060   0.0440473    0.741173     3.02061  0.000128014
3070   0.0439227    0.741139     3.44772  -6.03199e-06
3080   0.0441679    0.741206     2.87805  8.01329e-06
3090   0.0437624    0.741096     3.30502  0.000147551
3100   0.0412169    0.740407     3.16286  0.000171052
3110   0.0403414     0.74017     2.80698  0.000134343
3120     0.03853    0.739679       2.896  0.000139351
3130   0.0375544    0.739415     3.37653  -5.16232e-06
3140   0.0386333    0.739707     3.35877  6.52285e-05
3150   0.0362498    0.739062     3.37668  0.000107342
3160   0.0364864    0.739126     3.55456  -1.43204e-05
3170   0.0365362    0.739139     4.01714  -8.96538e-05
3180   0.0382795    0.739611     3.42951  0.000150578
3190   0.0335246    0.738324      3.1274  0.000160001
3200   0.0350795    0.738745     3.50116  -5.64998e-05
3210   0.0346546     0.73863     3.78558  6.15083e-05
3220   0.0338493    0.738412     3.37646  -2.36545e-05
3230   0.0351277    0.738758     3.85651  -0.000104293
3240   0.0359352    0.738977     3.85665  1.89984e-05
3250   0.0347477    0.738655     3.14469  -1.91635e-05
3260   0.0363185     0.73908     3.35806  -5.24715e-05
3270   0.0357972    0.738939     3.44704  9.52782e-05
3280   0.0344129    0.738564     3.35837  7.16349e-05
3290   0.0343645    0.738551     3.74977  -9.09965e-05
3300   0.0362328    0.739057     3.35792  -5.26914e-05
3310   0.0354183    0.738837      3.9986  8.63405e-05
3320    0.034506     0.73859     3.83832  8.65055e-05
3330   0.0336882    0.738368     3.90965  0.000279561
3340   0.0289148    0.737076     3.41137  3.87894e-05
3350   0.0329124    0.738158     3.85602  -3.29886e-05
3360   0.0295746    0.737254     3.74934  0.000155267
3370   0.0298071    0.737317     3.73146  7.35941e-05
3380   0.0281027    0.736856     3.46467  -5.75676e-05
3390   0.0309584    0.737629     3.96264  -0.000222687
3400   0.0325564    0.738062     3.60671  2.98955e-05
3410   0.0303605    0.737467     3.78476  3.44966e-05
3420   0.0318665    0.737875     4.26511  7.39243e-05
3430    0.028882    0.737067      3.6958  0.000117865
3440   0.0295092    0.737237     4.10508  -4.01763e-06
3450   0.0289624    0.737089     3.83789  5.48598e-05
3460    0.028412     0.73694      3.8379  0.00014841
3470   0.0259942    0.736285     3.48218  7.4794e-05
3480   0.0269161    0.736535     3.10824  -0.000102158
3490   0.0280373    0.736838     3.41061  2.10017e-05
3500   0.0264961    0.736421     3.76631  0.000159285
3510   0.0248516    0.735976     4.14027  4.58671e-05
3520   0.0255787    0.736172     4.15815  0.000145471
3530   0.0219422    0.735188     3.94473  9.08754e-05
3540   0.0237612     0.73568     4.15799  -2.2906e-05
3550   0.0224003    0.735312     3.65957  7.64891e-05
3560   0.0222315    0.735266     3.85529  0.000186649
3570   0.0186673    0.734301     3.16112  0.000106968
3580   0.0200921    0.734687     4.05075  -1.24932e-05
3590   0.0189172    0.734369     3.53489  -1.27243e-05
3600   0.0203466    0.734756     3.46351  6.28181e-05
3610   0.0176608    0.734029     3.39244  0.000158239
3620   0.0171818    0.733899     3.03614  9.84044e-05
3630   0.0156927    0.733496     3.03628  9.86576e-05
3640   0.0152086    0.733365     2.89385  -2.73529e-05
3650   0.0162398    0.733644     3.83721  8.18935e-06
3660   0.0150449     0.73332     3.37446  0.000114519
3670   0.0139494    0.733024     3.28551  3.86683e-05
3680   0.0142715    0.733111     3.40974  0.000216963
3690  0.00961016    0.731849     3.49914  7.97251e-05
3700    0.012677    0.732679     2.82236  -0.000113319
3710   0.0118765    0.732463     2.89376  6.99728e-05
3720   0.0112775      0.7323     3.14283  0.00018797
3730  0.00811715    0.731445     3.44558  -3.72924e-05
3740   0.0120234    0.732502     3.14203  -8.81677e-05
3750   0.0098805    0.731922      3.2495  0.000214574
3760   0.0077319     0.73134     3.40971  0.000225582
3770  0.00536887    0.730701     3.08908  0.000195323
3780  0.00382544    0.730283     2.98253  9.25816e-05
3790  0.00351724    0.730199     3.39167  -4.67366e-05
3800  0.00476017    0.730536     3.30222  4.1354e-05
3810  0.00269016    0.729975     3.62273  0.000165867
3820  0.00144282    0.729638     3.07071  0.000332946
3830  -0.00396876    0.728172     3.23127  0.000198207
3840  -0.00252131    0.728564     3.56934  0.00019945
3850  -0.00795776    0.727092     3.44485  0.000105438
3860  -0.00463007    0.727993     3.33768  -9.25045e-05
3870  -0.00610767    0.727593     3.07082  5.36381e-05
3880  -0.00570283    0.727703     2.99919  0.000132813
3890  -0.00876393    0.726874     3.69387  0.000243479
3900  -0.0105724    0.726384     3.35561  0.00018109
3910  -0.0123857    0.725893     3.30233  4.43921e-05
3920  -0.0114603    0.726144     3.14225  -0.00016141
3930  -0.00915755    0.726768     2.87501  1.82719e-05
3940  -0.0118257    0.726045     3.62245  0.000198251
3950  -0.0131226    0.725694     3.87164  0.000108685
3960  -0.0139994    0.725457     3.80027  0.000268785
3970  -0.0184983    0.724239     3.19533  4.01102e-05
3980  -0.0148016    0.725239     3.92457  -6.58561e-05
3990  -0.0171811    0.724595     3.31947  0.000115278
4000  -0.0171072    0.724615      3.5684  8.36657e-05
4010  -0.0188545    0.724142     3.40852  0.000201916
4020  -0.0211455    0.723522     3.26589  4.1321e-05
4030  -0.0196809    0.723918     2.82072  0.000208652
4040  -0.0253185    0.722392     2.69647  0.00024655
4050  -0.0246119    0.722583     2.99909  -0.000114145
4060  -0.0230356     0.72301     3.42616  -0.000233606
4070  -0.0199398    0.723848     3.28348  -7.69293e-05
4080  -0.0214971    0.723427     3.21232  0.000183116
4090  -0.0236021    0.722857     3.71061  2.04294e-05
4100  -0.0219056    0.723316     3.40774  3.16568e-05
4110  -0.0242352    0.722685     3.05221  0.000162466
4120   -0.025155    0.722436     3.17683  4.2928e-05
4130  -0.0250938    0.722453     3.51472  5.95819e-05
4140  -0.0263466    0.722114     3.30116  -7.75347e-05
4150  -0.0235431    0.722873     2.92703  -6.64724e-05
4160  -0.0250172    0.722474     2.48218  -8.35666e-05
4170  -0.0218717    0.723325     2.99797  -3.38472e-05
4180  -0.0243402    0.722657     3.19397  0.000103688
4190  -0.0239455    0.722764     3.15817  0.000259264
4200  -0.0295255    0.721253     3.06953  0.000431449
4210  -0.0325745    0.720427     3.21204  -3.33078e-05
4220  -0.0288593    0.721433     3.01576  -0.000233055
4230  -0.0279134    0.721689     2.96231  3.89545e-05
4240  -0.0296384    0.721222     2.96234  0.000211922
4250  -0.0321518    0.720542     2.89115  0.000246099
4260  -0.0345604     0.71989     2.82025  3.96809e-05
4270  -0.0329454    0.720327     2.87331  -0.000100078
4280  -0.0325589    0.720432     2.96191  0.000135554
4290  -0.0356565    0.719593     2.97989  0.000276501
4300  -0.0380889    0.718934     3.19345  0.000147816
4310  -0.0386128    0.718792     2.81944  -1.5399e-05
4320  -0.0377809    0.719018     2.90851  0.000194101
4330  -0.0424948    0.717741     2.60595  0.000262357
4340   -0.043028    0.717597      2.6594  4.77051e-05
4350  -0.0434489    0.717483     2.96165  -1.46616e-05
4360  -0.0427348    0.717676     2.69472  3.67751e-05
4370  -0.0441844    0.717284     2.73032  -5.47057e-05
4380  -0.0416407    0.717973     2.90788  0.000111316
4390  -0.0464108    0.716681     2.33834  0.000277315
4400   -0.047187    0.716471     2.32076  -0.000106021
4410  -0.0442903    0.717255     2.37355   5.497e-05
4420  -0.0482864    0.716173     2.28468  9.49152e-05
4430  -0.0461886    0.716741     2.05317  9.00058e-05
4440  -0.0500865    0.715686     1.94676  0.000245967
4450   -0.051108    0.715409     1.78627  0.00018338
4460  -0.0537541    0.714693     2.14252  -4.24767e-05
4470  -0.0502584    0.715639     1.83909  3.3506e-05
4480  -0.0544242    0.714511     1.99985  0.000359154
4490  -0.0574415    0.713695     2.32031  9.7953e-05
4500  -0.0563833    0.713981     2.07097  -7.594e-07
4510  -0.0574263    0.713699     1.57242  0.000291944
4520  -0.0622221      0.7124     1.83975  -2.42379e-05
4530  -0.0569416     0.71383     2.44445  6.47774e-05
4540  -0.0635177    0.712049     2.46217  0.000111096
4550  -0.0591635    0.713228     2.37326  -0.000223798
4560  -0.0590417    0.713261      2.1418  0.000129643
4570  -0.0617563    0.712526     2.53343  0.00012983
4580  -0.0616383    0.712558     2.08835  5.93837e-05
4590   -0.062944    0.712205     2.08842  -4.15301e-05
4600  -0.0608077    0.712783     1.92817  3.19257e-07
4610  -0.0629504    0.712203     2.07056  8.93455e-05
4620  -0.0625946    0.712299     2.44417  1.82059e-05
4630  -0.0633145    0.712104     2.23058  0.000275719
4640   -0.068109    0.710806     2.23091  0.000144348
4650  -0.0662015    0.711323     2.49742  -6.48875e-05
4660  -0.0668113    0.711158      1.7323  5.50911e-05
4670  -0.0673033    0.711024     2.05247  6.73752e-05
4680  -0.0681588    0.710793     2.30177  0.000128069
4690  -0.0698647    0.710331      1.9634  0.00019508
4700  -0.0720604    0.709736     2.21247  0.000274608
4710  -0.0753568    0.708844     2.49749  0.000117557
4720  -0.0744115      0.7091     1.92782  -4.60651e-05
4730  -0.0744355    0.709093     2.19442  -2.19703e-05
4740  -0.0739721    0.709219     2.15883  0.000124767
4750  -0.0769309    0.708418     1.96302  0.00023518
4760  -0.0786757    0.707945      2.2123  7.66102e-05
4770  -0.0784631    0.708003     1.90986  1.56194e-05
4780  -0.0789881    0.707861     2.15886  5.87232e-05
4790  -0.0796375    0.707685       2.497  0.000120628
4800  -0.0814007    0.707208     2.15876  5.30105e-05
4810  -0.0806977    0.707398     2.10532  -8.90374e-05
4820  -0.0796199     0.70769     1.90943  -8.72873e-06
4830  -0.0805232    0.707445     2.28297  0.000159054
4840   -0.082801    0.706828     2.44311  3.49041e-05
4850  -0.0812212    0.707256     1.96248  -9.57739e-05
4860  -0.0808855    0.707347     2.03347  9.14477e-05
4870  -0.0830502    0.706761     2.10471  0.000135422
4880  -0.0835939    0.706614      2.2471  -7.11177e-05
4890  -0.0816278    0.707146     1.94436  -0.000178141
4900  -0.0800311    0.707578     2.12214  -3.38688e-05
4910  -0.0809505    0.707329     2.51396  0.000167948
4920  -0.0833901    0.706669     1.94424  0.000206462
4930  -0.0850797    0.706211      2.1045  8.04406e-05
4940  -0.0849989    0.706233     1.97968  -0.000122444
4950  -0.0826308    0.706874     1.69463  3.01596e-05
4960  -0.0856021     0.70607      2.3177  0.000233892
4970  -0.0873087    0.705608     1.90825  6.87841e-05
4980  -0.0869778    0.705697     1.32074  0.000133396
4990  -0.0899766    0.704886     1.80144  0.000198008
