Time   Number   
ps   
0          62          31
10          62          32
20          56          32
30          57          39
40          55          42
50          55          37
60          61          30
70          59          35
80          58          38
90          57          38
100          57          36
110          60          37
120          58          33
130          56          37
140          56          41
150          58          44
160          58          45
170          59          43
180          56          39
190          58          33
200          59          34
210          60          39
220          57          44
230          59          34
240          60          40
250          62          37
260          60          27
270          58          31
280          61          39
290          60          37
300          58          30
310          58          40
320          56          38
330          60          32
340          59          36
350          58          33
360          61          32
370          58          35
380          58          34
390          55          32
400          57          34
410          59          36
420          59          39
430          63          36
440          60          40
450          59          32
460          60          32
470          55          40
480          57          37
490          57          40
500          59          33
510          59          37
520          60          42
530          58          30
540          59          30
550          55          33
560          58          38
570          57          33
580          57          38
590          57          34
600          54          29
610          55          31
620          59          35
630          59          33
640          57          33
650          63          38
660          58          35
670          56          45
680          58          38
690          58          40
700          59          32
710          60          38
720          56          42
730          59          32
740          57          40
750          63          32
760          59          33
770          62          32
780          57          39
790          62          35
800          59          39
810          58          33
820          53          39
830          56          34
840          57          32
850          55          37
860          62          30
870          57          34
880          58          35
890          53          46
900          59          41
910          61          35
920          56          31
930          58          33
940          56          34
950          58          38
960          56          40
970          60          33
980          58          35
990          54          41
1000          55          38
1010          57          34
1020          59          33
1030          56          37
1040          51          39
1050          55          38
1060          54          42
1070          53          37
1080          57          33
1090          51          37
1100          54          31
1110          53          30
1120          54          34
1130          54          33
1140          56          30
1150          56          32
1160          56          39
1170          57          29
1180          55          31
1190          55          38
1200          53          34
1210          56          30
1220          56          35
1230          56          32
1240          57          33
1250          55          32
1260          59          34
1270          57          34
1280          56          30
1290          52          32
1300          58          35
1310          56          35
1320          58          33
1330          59          33
1340          54          32
1350          54          33
1360          55          30
1370          56          39
1380          58          42
1390          55          39
1400          59          37
1410          54          32
1420          58          34
1430          57          31
1440          59          28
1450          55          38
1460          54          39
1470          58          39
1480          59          41
1490          58          41
1500          59          39
1510          58          38
1520          56          47
1530          52          39
1540          57          38
1550          54          34
1560          60          38
1570          56          37
1580          55          35
1590          55          46
1600          56          36
1610          54          39
1620          55          31
1630          55          35
1640          53          33
1650          55          31
1660          53          32
1670          56          29
1680          52          32
1690          51          30
1700          54          29
1710          58          31
1720          53          33
1730          58          37
1740          56          31
1750          53          35
1760          55          35
1770          58          34
1780          58          36
1790          55          36
1800          59          34
1810          57          31
1820          55          41
1830          55          42
1840          60          36
1850          58          35
1860          57          37
1870          59          35
1880          56          36
1890          60          33
1900          54          32
1910          59          34
1920          56          29
1930          57          36
1940          60          33
1950          54          36
1960          57          38
1970          58          37
1980          58          37
1990          62          33
2000          57          32
2010          58          39
2020          55          36
2030          54          41
2040          56          38
2050          54          37
2060          58          36
2070          56          35
2080          56          30
2090          55          36
2100          55          35
2110          51          37
2120          54          41
2130          57          38
2140          56          40
2150          59          37
2160          55          36
2170          58          42
2180          57          38
2190          59          33
2200          57          36
2210          59          35
2220          54          33
2230          56          35
2240          59          34
2250          61          34
2260          58          35
2270          55          36
2280          54          42
2290          58          34
2300          57          33
2310          57          39
2320          56          42
2330          59          33
2340          55          35
2350          56          34
2360          55          29
2370          55          34
2380          54          33
2390          53          37
2400          57          34
2410          54          32
2420          57          34
2430          56          40
2440          55          37
2450          57          36
2460          55          35
2470          53          40
2480          58          39
2490          57          43
2500          61          38
2510          53          41
2520          56          38
2530          54          41
2540          55          32
2550          55          34
2560          57          39
2570          56          37
2580          59          33
2590          53          39
2600          53          39
2610          56          34
2620          58          32
2630          61          35
2640          54          37
2650          62          37
2660          59          39
2670          60          35
2680          57          33
2690          58          30
2700          66          32
2710          61          36
2720          60          31
2730          56          36
2740          63          38
2750          58          37
2760          62          32
2770          57          37
2780          57          34
2790          60          34
2800          59          30
2810          61          30
2820          63          39
2830          59          40
2840          58          35
2850          59          38
2860          59          36
2870          58          39
2880          62          39
2890          61          37
2900          60          43
2910          61          36
2920          61          40
2930          56          38
2940          58          40
2950          60          40
2960          62          40
2970          58          43
2980          60          31
2990          57          36
3000          56          36
3010          55          41
3020          62          37
3030          56          39
3040          61          32
3050          60          32
3060          59          35
3070          58          39
3080          52          41
3090          56          33
3100          56          34
3110          58          43
3120          56          41
3130          59          35
3140          57          38
3150          57          37
3160          54          45
3170          54          45
3180          59          39
3190          55          41
3200          59          37
3210          58          39
3220          59          35
3230          58          38
3240          60          37
3250          58          36
3260          56          31
3270          59          34
3280          58          36
3290          57          39
3300          57          32
3310          60          38
3320          57          38
3330          59          39
3340          58          36
3350          62          33
3360          62          32
3370          58          36
3380          60          33
3390          57          32
3400          60          38
3410          61          42
3420          60          32
3430          59          38
3440          60          36
3450          54          38
3460          58          33
3470          55          38
3480          58          35
3490          59          31
3500          58          40
3510          57          32
3520          56          37
3530          56          35
3540          58          34
3550          59          30
3560          55          31
3570          54          34
3580          53          37
3590          55          33
3600          54          31
3610          56          41
3620          58          31
3630          57          32
3640          58          38
3650          58          34
3660          56          31
3670          56          31
3680          55          34
3690          56          35
3700          58          32
3710          59          34
3720          55          37
3730          57          32
3740          57          38
3750          56          37
3760          58          39
3770          59          40
3780          53          36
3790          51          45
3800          60          40
3810          57          42
3820          58          37
3830          56          31
3840          51          41
3850          57          40
3860          53          35
3870          59          33
3880          57          33
3890          55          37
3900          55          31
3910          55          38
3920          55          38
3930          56          39
3940          56          37
3950          55          33
3960          60          37
3970          54          42
3980          58          37
3990          58          38
4000          52          35
4010          58          35
4020          57          38
4030          55          38
4040          59          40
4050          56          39
4060          56          34
4070          56          29
4080          59          36
4090          59          41
4100          54          46
4110          59          41
4120          52          46
4130          57          42
4140          56          40
4150          56          38
4160          55          41
4170          59          33
4180          58          38
4190          59          37
4200          56          34
4210          54          40
4220          59          35
4230          59          38
4240          58          38
4250          55          38
4260          56          40
4270          59          38
4280          55          38
4290          56          38
4300          56          42
4310          58          38
4320          58          37
4330          57          34
4340          56          39
4350          59          35
4360          56          32
4370          56          34
4380          58          34
4390          54          36
4400          58          36
4410          59          30
4420          58          34
4430          57          40
4440          52          39
4450          56          29
4460          56          37
4470          57          29
4480          60          36
4490          60          34
4500          55          37
4510          58          34
4520          56          31
4530          55          38
4540          55          42
4550          59          35
4560          52          39
4570          54          37
4580          55          36
4590          59          28
4600          55          33
4610          57          34
4620          57          36
4630          56          35
4640          52          41
4650          55          34
4660          54          35
4670          55          34
4680          57          30
4690          57          38
4700          58          34
4710          55          37
4720          56          37
4730          56          39
4740          61          35
4750          58          35
4760          55          38
4770          59          38
4780          60          38
4790          59          37
4800          59          36
4810          57          36
4820          56          37
4830          57          35
4840          57          40
4850          57          41
4860          58          39
4870          55          35
4880          51          32
4890          53          34
4900          56          30
4910          57          36
4920          53          33
4930          54          33
4940          53          38
4950          57          38
4960          58          38
4970          53          36
4980          57          41
4990          57          35
5000          60          35
5010          60          38
5020          56          39
5030          56          38
5040          62          36
5050          53          40
5060          53          44
5070          57          45
5080          58          37
5090          59          38
5100          63          37
5110          56          39
5120          57          41
5130          55          35
5140          58          36
5150          56          38
5160          55          38
5170          60          36
5180          58          34
5190          56          38
5200          54          31
5210          56          31
5220          54          44
5230          54          39
5240          59          31
5250          55          39
5260          58          35
5270          54          37
5280          56          39
5290          60          35
5300          52          31
5310          53          37
5320          59          39
5330          56          35
5340          53          43
5350          58          40
5360          53          45
5370          57          35
5380          55          41
5390          53          38
5400          57          36
5410          55          38
5420          60          35
5430          58          36
5440          60          34
5450          55          36
5460          56          35
5470          61          34
5480          60          30
5490          57          42
5500          58          38
5510          57          37
5520          54          32
5530          57          38
5540          61          33
5550          62          34
5560          60          35
5570          64          36
5580          60          32
5590          58          37
5600          61          36
5610          59          37
5620          57          38
5630          61          35
5640          59          37
5650          59          30
5660          60          30
5670          56          37
5680          59          37
5690          58          33
5700          59          32
5710          58          35
5720          55          36
5730          59          29
5740          59          37
5750          59          33
5760          62          33
5770          60          34
5780          63          34
5790          63          32
5800          62          30
5810          60          33
5820          61          32
5830          56          34
5840          56          33
5850          54          40
5860          59          35
5870          60          29
5880          58          33
5890          55          30
5900          55          30
5910          58          33
5920          57          31
5930          54          32
5940          54          38
5950          60          33
5960          57          32
5970          58          38
5980          56          31
5990          61          29
6000          60          36
6010          56          33
6020          58          36
6030          57          34
6040          54          35
6050          58          27
6060          53          27
6070          56          34
6080          52          37
6090          60          30
6100          60          28
6110          57          35
6120          55          32
6130          55          32
6140          58          34
6150          59          32
6160          58          29
6170          59          29
6180          57          33
6190          57          33
6200          56          33
6210          62          27
6220          56          29
6230          53          34
6240          55          33
6250          54          32
6260          52          35
6270          55          33
6280          56          36
6290          55          32
6300          56          32
6310          55          34
6320          52          34
6330          54          31
6340          58          32
6350          55          33
6360          59          27
6370          55          31
6380          55          31
6390          55          30
6400          51          40
6410          57          32
6420          57          29
6430          59          35
6440          58          31
6450          55          25
6460          57          33
6470          58          28
6480          57          30
6490          55          33
6500          55          27
6510          56          35
6520          59          36
6530          56          33
6540          58          31
6550          59          34
6560          53          33
6570          60          27
6580          55          29
6590          57          31
6600          56          26
6610          55          34
6620          57          25
6630          61          29
6640          57          33
6650          57          32
6660          58          32
6670          56          35
6680          59          31
6690          59          32
6700          55          30
6710          56          32
6720          55          29
6730          57          28
6740          54          33
6750          55          30
6760          55          32
6770          54          32
6780          60          35
6790          56          25
6800          56          32
6810          57          29
6820          55          31
6830          56          33
6840          56          31
6850          56          27
6860          56          30
6870          54          32
6880          54          28
6890          56          30
6900          57          27
6910          57          32
6920          58          31
6930          55          31
6940          57          30
6950          57          30
6960          60          29
6970          59          28
6980          61          30
6990          54          37
7000          56          34
7010          55          34
7020          55          35
7030          57          34
7040          58          29
7050          55          36
7060          57          29
7070          53          32
7080          56          33
7090          56          35
7100          53          33
7110          55          30
7120          58          32
7130          53          38
7140          56          38
7150          59          29
7160          58          35
7170          59          34
7180          55          39
7190          59          33
7200          60          36
7210          58          33
7220          52          36
7230          55          30
7240          55          34
7250          58          32
7260          55          36
7270          59          40
7280          59          40
7290          59          28
7300          55          38
7310          60          35
7320          58          37
7330          59          37
7340          55          38
7350          60          35
7360          59          39
7370          62          32
7380          56          31
7390          59          40
7400          56          34
7410          60          38
7420          59          34
7430          56          37
7440          60          29
7450          58          32
7460          56          40
7470          58          36
7480          54          38
7490          53          36
7500          54          39
7510          56          32
7520          57          35
7530          58          34
7540          58          29
7550          56          39
7560          61          33
7570          59          38
7580          63          31
7590          58          33
7600          58          35
7610          59          33
7620          60          35
7630          59          36
7640          59          34
7650          57          36
7660          58          32
7670          53          34
7680          60          33
7690          60          32
7700          58          36
7710          60          38
7720          56          32
7730          57          39
7740          57          38
7750          59          33
7760          57          38
7770          59          37
7780          61          40
7790          61          35
7800          59          35
7810          60          38
7820          59          35
7830          59          37
7840          61          34
7850          56          38
7860          57          41
7870          54          39
7880          58          40
7890          58          37
7900          66          32
7910          56          38
7920          59          41
7930          55          41
7940          58          38
7950          58          39
7960          56          44
7970          61          34
7980          58          33
7990          57          38
8000          58          39
8010          57          34
8020          59          38
8030          58          35
8040          52          44
8050          58          37
8060          62          30
8070          59          30
8080          59          32
8090          60          34
8100          56          31
8110          64          32
8120          60          37
8130          58          30
8140          58          33
8150          59          31
8160          60          31
8170          59          35
8180          61          34
8190          58          38
8200          57          40
8210          62          40
8220          56          33
8230          59          37
8240          59          32
8250          63          30
8260          61          34
8270          55          35
8280          55          35
8290          56          36
8300          58          42
8310          58          39
8320          58          36
8330          57          36
8340          59          33
8350          59          37
8360          55          33
8370          60          34
8380          56          28
8390          52          37
8400          57          33
8410          59          37
8420          61          32
8430          56          35
8440          61          35
8450          62          36
8460          55          40
8470          61          35
8480          57          41
8490          62          38
8500          60          33
8510          59          35
8520          59          39
8530          57          30
8540          61          35
8550          60          32
8560          61          36
8570          56          33
8580          58          34
8590          56          39
8600          56          34
8610          58          33
8620          55          39
8630          58          39
8640          56          34
8650          58          38
8660          60          33
8670          53          41
8680          55          33
8690          60          34
8700          51          39
8710          55          38
8720          59          35
8730          54          37
8740          56          36
8750          57          30
8760          57          35
8770          56          38
8780          58          40
8790          59          38
8800          57          32
8810          63          33
8820          56          35
8830          55          38
8840          59          38
8850          62          36
8860          57          42
8870          54          41
8880          61          37
8890          59          38
8900          57          38
8910          64          41
8920          62          44
8930          59          38
8940          59          38
8950          62          43
8960          63          44
8970          62          38
8980          62          35
8990          64          35
9000          61          33
9010          55          40
9020          63          28
9030          63          37
9040          59          39
9050          61          41
9060          60          43
9070          57          40
9080          65          42
9090          56          42
9100          65          39
9110          62          44
9120          62          38
9130          61          39
9140          62          36
9150          63          42
9160          61          40
9170          56          41
9180          56          41
9190          61          33
9200          61          38
9210          59          36
9220          60          33
9230          61          34
9240          57          38
9250          60          38
9260          62          33
9270          61          41
9280          61          38
9290          64          40
9300          64          40
9310          65          40
9320          62          38
9330          60          39
9340          64          35
9350          63          37
9360          64          40
9370          63          47
9380          65          36
9390          61          46
9400          60          43
9410          61          38
9420          61          36
9430          58          36
9440          62          35
9450          63          35
9460          56          36
9470          62          34
9480          59          37
9490          60          35
9500          62          38
9510          61          38
9520          55          46
9530          60          36
9540          61          32
9550          55          30
9560          57          40
9570          59          37
9580          59          38
9590          56          37
9600          65          40
9610          60          40
9620          60          37
9630          59          36
9640          57          41
9650          62          32
9660          61          34
9670          61          41
9680          60          39
9690          55          47
9700          62          37
9710          59          37
9720          62          33
9730          60          35
9740          60          31
9750          61          39
9760          55          42
9770          57          36
9780          64          35
9790          60          39
9800          59          34
9810          50          40
9820          63          29
9830          59          35
9840          58          34
9850          57          35
9860          61          40
9870          60          35
9880          56          37
9890          61          36
9900          53          38
9910          53          38
9920          56          40
9930          59          32
9940          62          36
9950          62          34
9960          64          37
9970          60          33
9980          63          36
9990          62          33
10000          62          31
