Time   Number   
ps   
0          24          30
10          24          30
20          22          34
30          24          36
40          20          31
50          24          28
60          23          31
70          20          34
80          21          33
90          23          34
100          19          34
110          23          34
120          24          31
130          23          32
140          23          35
150          24          31
160          22          38
170          24          31
180          25          32
190          24          35
200          25          34
210          27          35
220          26          32
230          22          31
240          26          36
250          22          33
260          29          33
270          30          31
280          27          31
290          28          29
300          25          31
310          23          39
320          27          36
330          28          31
340          32          28
350          24          35
360          31          25
370          24          30
380          24          32
390          23          35
400          24          39
410          26          36
420          25          35
430          25          39
440          19          46
450          23          39
460          26          32
470          24          38
480          26          32
490          27          33
500          21          38
510          23          36
520          25          34
530          24          37
540          23          41
550          20          44
560          22          41
570          24          39
580          23          34
590          24          38
600          23          35
610          24          33
620          22          48
630          24          43
640          20          36
650          27          36
660          21          45
670          25          37
680          23          35
690          25          37
700          20          39
710          27          31
720          27          36
730          25          35
740          26          34
750          26          38
760          23          33
770          18          39
780          24          32
790          21          37
800          20          41
810          21          38
820          23          37
830          22          36
840          25          29
850          20          39
860          27          33
870          22          36
880          25          41
890          23          36
900          22          37
910          23          29
920          22          38
930          26          35
940          22          38
950          25          35
960          25          33
970          23          37
980          24          30
990          27          29
1000          21          38
1010          24          35
1020          25          37
1030          25          36
1040          24          35
1050          23          34
1060          25          37
1070          23          31
1080          23          32
1090          20          40
1100          24          35
1110          25          36
1120          22          37
1130          24          40
1140          26          32
1150          27          33
1160          26          36
1170          27          32
1180          27          35
1190          26          33
1200          25          37
1210          21          38
1220          27          28
1230          24          27
1240          26          32
1250          25          31
1260          26          31
1270          25          32
1280          24          31
1290          26          33
1300          20          39
1310          25          34
1320          22          34
1330          25          30
1340          25          32
1350          24          37
1360          29          31
1370          26          34
1380          27          31
1390          24          33
1400          22          34
1410          28          35
1420          26          26
1430          24          30
1440          24          34
1450          28          27
1460          25          25
1470          28          31
1480          24          31
1490          26          29
1500          24          34
1510          25          34
1520          22          37
1530          26          28
1540          25          30
1550          20          35
1560          25          26
1570          21          33
1580          22          32
1590          26          32
1600          23          32
1610          26          31
1620          25          31
1630          23          32
1640          21          32
1650          22          27
1660          21          38
1670          20          34
1680          23          30
1690          25          31
1700          24          35
1710          26          31
1720          29          29
1730          24          34
1740          26          26
1750          29          31
1760          24          37
1770          25          38
1780          24          34
1790          22          36
1800          20          43
1810          22          38
1820          25          35
1830          23          34
1840          25          40
1850          27          31
1860          22          36
1870          26          28
1880          24          34
1890          23          37
1900          25          33
1910          24          34
1920          25          39
1930          25          30
1940          22          35
1950          26          31
1960          27          26
1970          25          32
1980          24          33
1990          27          28
2000          26          24
2010          26          34
2020          22          35
2030          29          29
2040          24          34
2050          28          27
2060          28          34
2070          22          31
2080          25          29
2090          22          31
2100          24          35
2110          26          27
2120          27          31
2130          28          27
2140          28          26
2150          27          24
2160          27          31
2170          23          32
2180          25          34
2190          23          38
2200          30          30
2210          28          29
2220          26          30
2230          27          31
2240          28          33
2250          29          30
2260          26          33
2270          26          28
2280          31          28
2290          24          32
2300          23          34
2310          28          32
2320          25          32
2330          26          36
2340          22          29
2350          25          36
2360          29          25
2370          24          32
2380          22          31
2390          26          30
2400          22          30
2410          26          28
2420          29          28
2430          27          25
2440          24          31
2450          28          27
2460          28          30
2470          26          32
2480          30          31
2490          25          30
2500          26          31
2510          25          34
2520          25          28
2530          25          30
2540          25          32
2550          28          31
2560          29          27
2570          29          30
2580          25          30
2590          28          27
2600          27          30
2610          25          32
2620          26          24
2630          30          28
2640          26          29
2650          28          22
2660          27          28
2670          27          24
2680          29          24
2690          30          18
2700          28          23
2710          26          23
2720          28          22
2730          29          22
2740          27          26
2750          28          27
2760          26          24
2770          26          27
2780          26          26
2790          29          21
2800          25          30
2810          28          25
2820          27          24
2830          28          23
2840          27          26
2850          28          26
2860          25          26
2870          27          30
2880          24          38
2890          29          27
2900          28          26
2910          26          25
2920          27          31
2930          31          23
2940          27          26
2950          21          35
2960          29          28
2970          27          30
2980          23          30
2990          27          25
3000          28          27
3010          26          27
3020          30          21
3030          31          21
3040          25          29
3050          25          26
3060          24          28
3070          24          29
3080          25          27
3090          25          25
3100          28          22
3110          29          29
3120          28          29
3130          28          27
3140          27          28
3150          29          25
3160          27          29
3170          26          31
3180          27          25
3190          28          31
3200          28          24
3210          31          30
3220          29          32
3230          29          27
3240          30          24
3250          28          26
3260          25          34
3270          28          31
3280          30          28
3290          28          31
3300          34          21
3310          28          28
3320          30          28
3330          29          23
3340          29          33
3350          31          21
3360          30          22
3370          25          32
3380          31          22
3390          30          25
3400          30          27
3410          25          29
3420          29          21
3430          28          29
3440          31          23
3450          30          25
3460          24          36
3470          27          23
3480          29          26
3490          27          32
3500          30          25
3510          28          25
3520          28          33
3530          30          23
3540          32          29
3550          25          37
3560          28          32
3570          29          30
3580          30          32
3590          26          35
3600          28          33
3610          30          30
3620          30          28
3630          29          35
3640          25          28
3650          30          31
3660          30          26
3670          27          29
3680          29          26
3690          27          28
3700          28          33
3710          27          35
3720          28          32
3730          29          32
3740          30          32
3750          30          29
3760          31          27
3770          30          28
3780          27          30
3790          29          30
3800          28          31
3810          31          30
3820          27          31
3830          26          31
3840          31          26
3850          27          27
3860          26          29
3870          27          28
3880          26          36
3890          28          32
3900          33          23
3910          26          32
3920          27          27
3930          30          32
3940          28          26
3950          26          29
3960          28          23
3970          25          28
3980          23          30
3990          23          29
4000          26          24
4010          27          26
4020          29          24
4030          27          29
4040          25          29
4050          29          27
4060          24          29
4070          27          33
4080          30          26
4090          25          31
4100          27          27
4110          29          27
4120          27          25
4130          30          26
4140          26          29
4150          25          23
4160          28          27
4170          29          25
4180          27          34
4190          27          28
4200          26          26
4210          27          25
4220          27          26
4230          25          23
4240          24          24
4250          29          33
4260          30          25
4270          28          25
4280          25          30
4290          25          31
4300          26          23
4310          26          23
4320          27          21
4330          24          33
4340          29          27
4350          24          28
4360          25          24
4370          26          29
4380          26          29
4390          25          27
4400          25          29
4410          24          31
4420          26          26
4430          24          35
4440          27          32
4450          23          30
4460          25          31
4470          24          33
4480          29          21
4490          26          32
4500          22          37
4510          24          25
4520          24          27
4530          25          30
4540          26          24
4550          25          25
4560          27          23
4570          27          22
4580          27          25
4590          23          28
4600          29          25
4610          28          24
4620          26          19
4630          24          23
4640          27          23
4650          26          30
4660          23          28
4670          26          21
4680          26          25
4690          26          24
4700          26          31
4710          24          32
4720          25          29
4730          27          27
4740          26          27
4750          25          25
4760          25          30
4770          27          26
4780          26          28
4790          25          32
4800          28          27
4810          28          28
4820          23          29
4830          25          26
4840          25          31
4850          26          30
4860          26          29
4870          26          32
4880          25          29
4890          32          19
4900          27          26
4910          29          25
4920          26          28
4930          24          31
4940          27          23
4950          26          30
4960          25          32
4970          28          24
4980          27          34
4990          25          28
5000          26          32
5010          23          29
5020          21          28
5030          27          28
5040          25          32
5050          23          29
5060          26          28
5070          24          30
5080          28          31
5090          23          28
5100          28          25
5110          28          26
5120          29          31
5130          26          30
5140          28          25
5150          30          23
5160          29          27
5170          27          20
5180          24          26
5190          27          24
5200          28          23
5210          27          29
5220          30          24
5230          29          27
5240          27          25
5250          27          30
5260          28          30
5270          26          23
5280          29          28
5290          26          31
5300          27          29
5310          30          29
5320          32          26
5330          27          30
5340          27          28
5350          28          24
5360          29          26
5370          28          22
5380          26          28
5390          25          38
5400          28          30
5410          27          34
5420          24          33
5430          24          31
5440          26          28
5450          27          29
5460          28          27
5470          28          27
5480          23          33
5490          26          35
5500          25          31
5510          26          27
5520          26          24
5530          27          26
5540          26          28
5550          26          33
5560          27          31
5570          29          25
5580          24          31
5590          27          27
5600          28          20
5610          25          26
5620          29          34
5630          28          29
5640          23          24
5650          24          27
5660          23          27
5670          24          29
5680          23          27
5690          23          28
5700          22          30
5710          26          27
5720          24          26
5730          29          21
5740          25          26
5750          25          34
5760          25          23
5770          28          24
5780          26          24
5790          27          29
5800          27          28
5810          26          31
5820          27          26
5830          24          31
5840          27          25
5850          25          22
5860          24          29
5870          24          26
5880          27          28
5890          25          22
5900          25          25
5910          26          25
5920          19          30
5930          28          25
5940          26          24
5950          29          21
5960          24          28
5970          26          29
5980          27          24
5990          26          28
6000          27          28
6010          25          27
6020          24          31
6030          24          28
6040          26          22
6050          24          28
6060          27          25
6070          24          32
6080          25          26
6090          25          26
6100          26          26
6110          24          24
6120          26          28
6130          28          22
6140          28          23
6150          29          24
6160          25          30
6170          23          27
6180          27          29
6190          26          25
6200          24          32
6210          26          26
6220          27          25
6230          28          24
6240          25          28
6250          28          24
6260          24          27
6270          28          32
6280          23          26
6290          26          29
6300          26          27
6310          25          33
6320          26          21
6330          28          26
6340          25          30
6350          27          23
6360          25          30
6370          28          22
6380          26          26
6390          22          25
6400          27          24
6410          24          30
6420          24          26
6430          24          26
6440          27          27
6450          27          25
6460          23          33
6470          25          30
6480          23          26
6490          27          27
6500          23          28
6510          24          26
6520          18          29
6530          26          29
6540          25          26
6550          23          27
6560          24          26
6570          27          26
6580          22          28
6590          24          27
6600          22          27
6610          25          29
6620          24          29
6630          26          24
6640          25          32
6650          26          27
6660          26          29
6670          25          25
6680          26          25
6690          24          30
6700          23          32
6710          23          29
6720          26          19
6730          25          27
6740          25          23
6750          22          29
6760          26          32
6770          25          25
6780          26          28
6790          28          25
6800          25          25
6810          24          20
6820          25          24
6830          25          27
6840          27          23
6850          28          27
6860          27          32
6870          24          31
6880          28          29
6890          27          26
6900          29          28
6910          27          33
6920          23          28
6930          24          32
6940          27          24
6950          30          23
6960          26          26
6970          28          30
6980          26          29
6990          27          31
7000          27          31
7010          25          25
7020          26          34
7030          26          28
7040          26          30
7050          24          26
7060          27          18
7070          26          27
7080          22          29
7090          24          23
7100          23          28
7110          23          19
7120          26          26
7130          24          23
7140          27          28
7150          27          30
7160          26          30
7170          26          28
7180          22          29
7190          25          36
7200          23          26
7210          27          30
7220          25          34
7230          24          29
7240          24          23
7250          28          31
7260          26          25
7270          28          30
7280          27          27
7290          26          33
7300          26          29
7310          26          28
7320          28          25
7330          25          31
7340          25          25
7350          26          27
7360          24          26
7370          27          24
7380          25          28
7390          24          25
7400          29          26
7410          26          32
7420          29          21
7430          27          21
7440          25          29
7450          23          29
7460          24          28
7470          28          27
7480          27          27
7490          28          27
7500          23          31
7510          28          26
7520          29          26
7530          26          27
7540          28          28
7550          30          26
7560          28          27
7570          31          29
7580          31          21
7590          28          32
7600          30          23
7610          29          26
7620          26          27
7630          30          25
7640          27          28
7650          26          31
7660          26          30
7670          32          27
7680          29          30
7690          30          28
7700          28          28
7710          34          24
7720          28          26
7730          24          35
7740          26          31
7750          26          26
7760          27          28
7770          29          23
7780          29          30
7790          26          33
7800          28          28
7810          25          33
7820          22          35
7830          27          27
7840          28          24
7850          23          36
7860          25          31
7870          25          20
7880          31          26
7890          25          29
7900          28          23
7910          27          26
7920          28          30
7930          27          30
7940          24          26
7950          27          27
7960          22          32
7970          26          23
7980          26          27
7990          29          25
8000          26          33
8010          28          24
8020          28          25
8030          29          25
8040          21          30
8050          26          24
8060          27          19
8070          26          24
8080          26          25
8090          26          20
8100          25          28
8110          24          24
8120          28          26
8130          28          17
8140          25          23
8150          25          28
8160          28          22
8170          25          22
8180          24          22
8190          23          29
8200          29          22
8210          27          20
8220          25          23
8230          23          24
8240          26          23
8250          25          18
8260          28          17
8270          23          21
8280          25          26
8290          22          26
8300          25          20
8310          31          17
8320          24          23
8330          26          26
8340          27          26
8350          26          26
8360          24          22
8370          26          21
8380          21          32
8390          27          22
8400          24          28
8410          23          22
8420          28          25
8430          26          26
8440          25          21
8450          21          27
8460          26          27
8470          26          22
8480          23          25
8490          22          26
8500          22          26
8510          28          19
8520          28          22
8530          26          22
8540          25          27
8550          23          24
8560          22          29
8570          23          25
8580          24          23
8590          25          31
8600          24          26
8610          26          21
8620          22          26
8630          22          26
8640          26          20
8650          24          24
8660          25          25
8670          27          23
8680          26          25
8690          28          20
8700          26          26
8710          28          23
8720          24          33
8730          28          21
8740          29          27
8750          28          26
8760          31          32
8770          30          24
8780          28          26
8790          26          33
8800          26          29
8810          27          29
8820          29          29
8830          27          24
8840          25          24
8850          27          27
8860          25          24
8870          28          26
8880          27          23
8890          26          28
8900          29          23
8910          29          22
8920          29          29
8930          29          24
8940          29          29
8950          27          29
8960          26          29
8970          30          22
8980          27          28
8990          24          26
9000          25          25
9010          28          23
9020          24          27
9030          27          27
9040          26          22
9050          24          24
9060          23          28
9070          25          22
9080          23          33
9090          24          25
9100          22          29
9110          23          20
9120          22          26
9130          25          26
9140          23          22
9150          22          27
9160          26          24
9170          22          21
9180          29          21
9190          25          19
9200          24          23
9210          26          25
9220          27          23
9230          27          23
9240          26          25
9250          26          24
9260          26          31
9270          24          27
9280          22          32
9290          22          23
9300          23          33
9310          21          34
9320          26          24
9330          23          26
9340          28          25
9350          26          26
9360          24          33
9370          28          24
9380          26          25
9390          26          24
9400          29          30
9410          23          35
9420          26          37
9430          29          28
9440          22          30
9450          22          29
9460          23          28
9470          24          27
9480          23          27
9490          24          20
9500          22          20
9510          23          27
9520          26          20
9530          23          28
9540          22          31
9550          23          28
9560          27          22
9570          25          30
9580          25          24
9590          25          24
9600          24          31
9610          27          28
9620          27          34
9630          24          27
9640          26          27
9650          27          27
9660          25          26
9670          24          26
9680          26          24
9690          26          25
9700          25          25
9710          23          31
9720          24          29
9730          23          33
9740          25          31
9750          27          23
9760          25          29
9770          27          28
9780          27          27
9790          28          25
9800          26          28
9810          26          26
9820          26          26
9830          25          29
9840          24          32
9850          24          27
9860          21          28
9870          22          34
9880          23          28
9890          27          33
9900          25          31
9910          27          32
9920          27          28
9930          21          31
9940          24          23
9950          22          26
9960          23          28
9970          21          30
9980          23          28
9990          21          18
10000          22          23
