Time   C(t)   
ps   
0           1           1  7.10723e-10   0.0443447
10     0.55884    0.918152   -0.310472   0.0230747
20    0.538507     0.91438    0.653452  0.00180463
30    0.522747    0.911456    0.226939  0.00142969
40    0.509913    0.909075   -0.287679  0.00137953
50    0.495157    0.906337    -1.20639   0.0010675
60    0.488563    0.905114   -0.848036  0.000606716
70    0.483023    0.904086    -1.58703  0.00100639
80    0.468435     0.90138   -0.914838  0.00082335
90    0.466556    0.901031     -1.3861  0.000432621
100    0.459783    0.899774    -1.07189  0.00055867
110    0.455382    0.898958    -1.29642  0.000482176
120    0.450139    0.897985   -0.400175  0.000494915
130    0.445484    0.897121   -0.399934  0.00046017
140    0.440936    0.896278     -1.0052  0.000479238
150    0.435899    0.895343   -0.870303  0.00052807
160    0.430375    0.894318    -1.58716  0.000397056
170    0.427958     0.89387   -0.758639  0.000487976
180    0.420615    0.892507    -1.34096  0.000476812
190    0.418422    0.892101   -0.355312  0.000466146
200    0.411292    0.890778    -2.19249  0.000550961
210    0.407402    0.890056    -1.22855  0.000528151
220    0.400729    0.888818  -0.0630594  0.000420509
230    0.398992    0.888496    -1.90072  9.5208e-05
240    0.398825    0.888465   -0.646165  0.000392045
250    0.391151    0.887041   -0.982098  0.00050751
260    0.388675    0.886582    -1.49807  0.000387402
270    0.383403    0.885604    -0.98258  0.000497292
280    0.378729    0.884736    -1.40866  0.000194834
290    0.379507    0.884881    -1.20687  0.000146869
300    0.375792    0.884191    -1.09512  0.00043291
310    0.370848    0.883274    -1.85698  0.000494707
320    0.365897    0.882356    -1.07222  0.000605561
330    0.358737    0.881027   -0.489112  0.000521259
340    0.355472    0.880422    -1.13948  0.000235072
350    0.354036    0.880155    -1.27385  0.000235716
360    0.350758    0.879547   -0.579495  0.000273031
370    0.348575    0.879142     -1.6326  0.000334971
380    0.344058    0.878304    -1.18406  0.000261706
390    0.343341    0.878171   -0.826403  0.000348496
400    0.337089    0.877011    -1.38593  0.000428991
410    0.334761    0.876579    -1.09481  0.000177582
420    0.333537    0.876352    -0.64704  0.000116347
430    0.332434    0.876147    -1.76727  0.000394262
440    0.325652    0.874889    -1.20687  0.000481375
450    0.322807    0.874361    -1.40861  0.000105296
460    0.323546    0.874498    -1.22997  0.000167671
470    0.319453    0.873739    -1.72302  0.000204937
480    0.319447    0.873738    -2.17086  0.000348063
490    0.312492    0.872448    -2.23766  0.000174819
500    0.315951    0.873089   -0.826557  -1.69471e-05
510    0.312831     0.87251    -1.25204  0.000430565
520    0.307339    0.871492    -1.52152  0.000468796
530    0.303455    0.870771    -1.09545  5.83589e-05
540    0.306172    0.871275    -1.74575  0.00030845
550    0.297286    0.869626    -1.87996  0.000514545
560    0.295881    0.869366    -2.19435  0.000453503
570    0.288216    0.867944    -1.96971  0.000141247
580    0.293056    0.868842    -1.49939  2.92689e-05
590    0.287631    0.867835    -1.29728  0.00044287
600    0.284199    0.867198    -1.76819  0.000337364
610    0.280883    0.866583     -1.8355  2.36124e-05
620    0.283727    0.867111    -1.25353  0.00014984
630    0.277887    0.866027     -1.3426  0.000319824
640     0.27733    0.865924   -0.155104  0.000345975
650    0.270967    0.864744    -1.18668  0.000144362
660    0.274443    0.865388    -1.23211  -0.000151944
670    0.274006    0.865307    -1.47837  0.000258911
680    0.269265    0.864428    -1.00758  0.00048735
690    0.264259    0.863499     -1.6569  -0.000120459
700    0.271674    0.864875    -1.70279  -5.02631e-05
710    0.265264    0.863685    -1.72534  0.000679837
720    0.258077    0.862352    -1.38844  0.000426662
730    0.256731    0.862102    -1.99351  0.000249563
740    0.253086    0.861426    -2.50876  3.96922e-05
750    0.255937    0.861955     -2.5094  4.63754e-05
760    0.252158    0.861254    -2.53149  5.25594e-05
770    0.254886     0.86176    -2.75616  2.74524e-05
780    0.251609    0.861152    -2.17357  0.000251184
790    0.249862    0.860828    -2.80141  8.27163e-06
800    0.251444    0.861121    -2.15157  -2.97815e-05
810    0.250458    0.860938    -2.46535  0.000201131
820    0.247421    0.860375    -2.48761  0.000137006
830    0.247718     0.86043    -2.53213  4.10587e-05
840      0.2466    0.860223    -1.70334  0.000305334
850    0.241611    0.859297    -2.86869  0.000357331
860    0.239454    0.858897    -1.97229  5.46962e-05
870    0.240517    0.859094    -2.44303  -0.000164763
880    0.242749    0.859508    -2.55483  -6.16997e-05
890    0.241751    0.859323    -2.77949  0.000301046
900    0.236728    0.858391    -2.44295  0.000347003
910    0.234811    0.858036    -3.81033  8.14572e-05
920    0.235099    0.858089    -3.29505  -0.000113312
930    0.237077    0.858456    -3.25083  -3.52427e-05
940    0.235804     0.85822    -3.16095  4.91545e-05
950    0.236094    0.858274    -3.67614  4.93146e-05
960    0.234817    0.858037     -2.8699  0.000238799
970    0.231318    0.857388    -3.78817  0.000239185
980    0.230034    0.857149    -3.45213  0.000233306
990    0.226652    0.856522    -4.10199  0.000161646
1000    0.226801    0.856549    -3.74401  -2.80634e-05
1010    0.227214    0.856626    -4.05785  0.000175493
1020    0.223291    0.855898    -3.85587  0.000274316
1030    0.221727    0.855608    -3.76599  1.82644e-05
1040    0.222926     0.85583    -3.45226  -6.05598e-05
1050    0.222938    0.855833    -3.69908  7.78757e-05
1060    0.221368    0.855541    -3.87873  0.00021652
1070    0.218608    0.855029    -3.65439  0.000554061
1080    0.210287    0.853486    -3.87787  0.000237305
1090    0.213862    0.854149    -4.12518  -0.000470483
1100    0.219696    0.855231     -2.6462  -3.35887e-05
1110    0.214534    0.854273    -3.27371  0.000377523
1120    0.212146    0.853831    -3.52057  0.000272195
1130     0.20909    0.853263    -3.09421  0.000106227
1140    0.210021    0.853436    -3.11716  0.000273433
1150    0.203621    0.852249    -2.22078  0.000120107
1160    0.207619    0.852991    -3.31931  -6.07222e-06
1170    0.203743    0.852271    -3.67754  6.05747e-05
1180    0.206408    0.852766    -2.93797  -9.29751e-05
1190    0.205602    0.852616    -2.91537  0.000174594
1200    0.202916    0.852118     -3.1844  -0.000180537
1210    0.209213    0.853286    -3.22998  8.14743e-05
1220    0.201286    0.851816    -2.87143  0.000322811
1230    0.202757    0.852089    -3.25223  -0.000106742
1240    0.203421    0.852212    -3.56609  6.82861e-05
1250    0.201391    0.851835    -3.22989  9.53369e-05
1260    0.201515    0.851858    -3.14037  -5.97566e-05
1270    0.202586    0.852057    -2.91651  0.000251329
1280    0.196488    0.850926    -3.87991  0.000204007
1290    0.198506      0.8513    -4.50755  5.57721e-05
1300    0.195373    0.850719    -4.23879  0.000381491
1310    0.190876    0.849884     -3.6108  0.000191975
1320    0.191533    0.850006    -3.74523  -9.97864e-05
1330    0.192872    0.850255    -3.34228  7.02776e-05
1340    0.190127    0.849745    -3.36509  0.000226993
1350    0.188332    0.849412    -2.55827  2.32905e-06
1360    0.190081    0.849737    -2.55881  0.000125536
1370    0.185821    0.848947    -2.93919  0.000159671
1380    0.186887    0.849144     -3.2528  -0.000243699
1390    0.190695    0.849851    -3.47761  -0.000100188
1400    0.188891    0.849516    -3.63396  0.000160136
1410    0.187492    0.849257    -2.96181  0.000201853
1420    0.184854    0.848767    -3.18578  -0.0001074
1430     0.18964    0.849655    -3.32067  -0.000203621
1440    0.188927    0.849523    -3.34322  9.89027e-05
1450    0.187662    0.849288    -2.51378  -8.04938e-05
1460    0.190536    0.849821    -2.67081  -0.000239313
1470    0.192449    0.850176    -3.41099  -0.000101489
1480    0.192566    0.850198    -2.49238  0.00025859
1490    0.187277    0.849217    -2.91793  0.000272742
1500    0.187111    0.849186    -2.11124  0.000356963
1510    0.180138    0.847892    -3.14135  0.000343516
1520    0.180241    0.847911    -2.58134  -0.000100879
1530    0.182155    0.848266    -2.80594  6.62945e-05
1540    0.178915    0.847665    -2.15557  1.73002e-05
1550    0.181809    0.848202    -2.71659  -0.000366569
1560    0.186247    0.849025     -2.4697  -0.000269496
1570    0.187199    0.849202    -2.60473  0.000156844
1580     0.18311    0.848443    -2.40303  0.000283199
1590    0.181535    0.848151    -2.73956  9.45978e-05
1600    0.181218    0.848092      -2.157  3.15964e-05
1610    0.180903    0.848034    -2.73951  -3.17417e-05
1620    0.181853     0.84821    -2.56043  0.000116283
1630    0.178578    0.847603    -1.82076  0.000433698
1640    0.173179    0.846601    -2.65005  0.000123801
1650    0.176101    0.847143    -2.26941  1.85855e-05
1660    0.172807    0.846532    -2.44837  0.000181083
1670     0.17248    0.846471    -2.76237  0.000146419
1680    0.169878    0.845989    -1.68687  0.000416317
1690    0.164153    0.844927    -1.68626  0.000246333
1700    0.164952    0.845075    -2.38118  3.40223e-05
1710    0.163473      0.8448    -1.93295  8.3819e-05
1720    0.163275    0.844764    -1.68643  3.41997e-05
1730    0.162789    0.844673     -2.5605  -5.85996e-05
1740    0.164447    0.844981    -1.88863  0.000384543
1750    0.155098    0.843247     -2.2911  0.000249016
1760    0.159467    0.844057    -2.11222  -0.000244117
1770    0.159981    0.844152    -1.95574  -8.71927e-05
1780    0.161211    0.844381    -2.22467  -0.000151864
1790    0.163018    0.844716   -0.925079  0.000372817
1800    0.153755    0.842997    -1.73147  0.000459463
1810    0.153829    0.843011     -1.3279  -2.57045e-07
1820     0.15376    0.842998      -1.418  -2.19591e-05
1830    0.154268    0.843092    -1.61917  0.000122532
1840    0.151309    0.842544    -1.64216  -2.2167e-05
1850    0.154711    0.843175    -0.79071  -0.000159349
1860    0.154496    0.843135    -2.31475  0.000210045
1870     0.15051    0.842395    -1.84372  -0.000123914
1880    0.156974    0.843595    -1.10468  -4.35315e-05
1890    0.151381    0.842557    -1.95594  0.000188569
1900    0.153203    0.842895      -2.001  -0.000116605
1910    0.153713     0.84299    -1.59725  3.63521e-05
1920    0.152476     0.84276    -1.39606  7.99641e-05
1930    0.152114    0.842693    -2.47147  -3.66896e-05
1940     0.15321    0.842896    -2.38225  0.00024161
1950    0.147281    0.841796    -1.59758  0.000249097
1960    0.148228    0.841972    -1.57555  8.13939e-05
1970    0.145654    0.841494    -1.44101  0.00025777
1980    0.143072    0.841015    -1.32906  6.69524e-05
1990    0.144314    0.841246    -1.62075  -0.000153727
2000    0.146147    0.841586    -1.68772  0.000281464
2010    0.138685    0.840201    -1.62011  0.000318297
2020    0.139781    0.840405    -1.57555  -5.03756e-05
2030    0.139693    0.840388    -1.39637  0.000157149
2040    0.136638    0.839822    -1.93419  -3.55318e-05
2050    0.140403     0.84052    -1.06065  -3.52912e-05
2060    0.137344    0.839953    -1.39674  0.000432685
2070     0.13175    0.838915    -1.91177  9.23648e-06
2080    0.137159    0.839918    -1.15005  -0.000206222
2090    0.135874     0.83968    -1.97945  0.000277994
2100    0.131599    0.838887    -1.86733    0.000316
2110    0.129554    0.838507    -1.41903  0.00045903
2120    0.122419    0.837184    -1.91153  0.000204986
2130    0.125454    0.837747    -2.40504  1.11479e-05
2140    0.122196    0.837142    -1.41813  2.58137e-05
2150    0.124938    0.837651    -1.88942  -0.000101569
2160    0.124227    0.837519    -1.91193  0.000191621
2170    0.121106     0.83694    -2.20341  0.000357926
2180    0.117069    0.836191    -1.14966  0.000132363
2190    0.118458    0.836449    -1.77743  -0.000161968
2200    0.120308    0.836792    -2.00231  6.47038e-05
2210    0.117164    0.836209    -1.32978  0.000102533
2220    0.118257    0.836411    -1.66622  0.000224535
2230    0.112674    0.835376    -2.09146  7.26871e-05
2240    0.116804    0.836142    -2.09214  9.62686e-05
2250    0.110748    0.835018    -1.55419  0.000225435
2260    0.112295    0.835305    -1.53176  0.000135029
2270    0.108048    0.834517    -1.66609  1.26418e-05
2280    0.112042    0.835258    -1.57711  -0.000139688
2290    0.110841    0.835036    -1.57682  0.000326956
2300    0.105503    0.834045    -1.55407  0.000235298
2310    0.106135    0.834163   -0.680337  -0.000101633
2320    0.107536    0.834422    -1.64433  -5.55955e-05
2330    0.107247    0.834369    -1.19638  0.00010581
2340    0.105419     0.83403    -1.57698  0.000136812
2350    0.104511    0.833861    -1.30824  6.77716e-05
2360    0.104064    0.833778     -1.2863  0.000160651
2370    0.101298    0.833265    -1.06166  6.81251e-05
2380    0.102701    0.833525    -1.64452  1.44251e-05
2390     0.10101    0.833212    -1.35332  4.51222e-05
2400    0.101799    0.833358    -1.75656  3.77011e-05
2410    0.100256    0.833072     -1.6671  0.000208889
2420   0.0976212    0.832583   -0.591356  0.000217098
2430   0.0959136    0.832266     -1.1289  -0.000328417
2440     0.10419    0.833802    -1.21998  -0.000305125
2450    0.102016    0.833398    -1.10759  0.000624242
2460   0.0917047    0.831485    -1.01743  0.000578349
2470   0.0904492    0.831252   -0.770915  8.63891e-05
2480   0.0899769    0.831165    -1.35393  2.37256e-05
2490   0.0899747    0.831164    -1.42117  1.58869e-05
2500   0.0896592    0.831106    -1.42093  2.39186e-05
2510   0.0894963    0.831075    -1.06258  -7.4055e-06
2520   0.0898073    0.831133   -0.367896  0.000118725
2530   0.0871218    0.830635    -1.19708  0.000245354
2540   0.0849002    0.830223   -0.278323  0.000103722
2550   0.0850474     0.83025    -0.95052  8.03813e-05
2560   0.0832926    0.829925   -0.950782  -7.00392e-06
2570   0.0851874    0.830276    -1.13004  -3.06167e-05
2580   0.0839049    0.830038    -0.70453  -5.47603e-05
2590   0.0862826    0.830479    -1.24262  0.000224278
2600   0.0794194    0.829206   -0.547696  0.000463784
2610    0.077007    0.828758   -0.457862  0.000313447
2620   0.0731504    0.828043   -0.592056  0.000146049
2630    0.074086    0.828216   -0.278827  -0.000109601
2640   0.0753425     0.82845     -1.0857  -0.000125841
2650   0.0766028    0.828683   -0.817113  6.66793e-05
2660   0.0740089    0.828202   -0.682503  0.000211363
2670   0.0723755    0.827899   -0.839271  2.65848e-05
2680   0.0734772    0.828103     -0.6827  0.000252775
2690     0.06732    0.826961   -0.727235  0.000390374
2700   0.0656697    0.826655   -0.996192  0.000165197
2710   0.0640161    0.826348   -0.771747  9.27828e-05
2720    0.063814    0.826311  -0.0104605  0.000190529
2730   0.0602055    0.825641   -0.189539  0.000142065
2740   0.0609727    0.825784   -0.368574  9.3923e-05
2750   0.0583271    0.825293   -0.346657  -7.71366e-05
2760   0.0625155     0.82607   -0.795174  2.11075e-05
2770   0.0579049    0.825214   -0.771945  0.000183814
2780   0.0588392    0.825388   -0.862063  0.000405554
2790   0.0497938     0.82371   -0.301291  0.000455238
2800   0.0497344    0.823699    -1.01861  -2.36128e-06
2810   0.0498411    0.823718   -0.413393  -4.34196e-05
2820   0.0506028     0.82386   -0.794627  -1.04412e-05
2830   0.0500499    0.823757    -1.64632  0.000310635
2840   0.0443901    0.822707   -0.525867  7.18359e-05
2850   0.0486132    0.823491   -0.570992  -7.58516e-05
2860   0.0459071    0.822988    -0.90721  0.000146852
2870   0.0456761    0.822946    -1.31021  -2.66332e-05
2880   0.0464398    0.823087   -0.346832  -5.98364e-05
2890   0.0468729    0.823168   -0.907145  2.30832e-05
2900   0.0459781    0.823002   -0.279943  5.62703e-05
2910   0.0457475    0.822959   -0.705777  0.000264694
2920   0.0406843    0.822019   -0.100142  0.000248502
2930   0.0407774    0.822037   -0.324346  -0.000226623
2940   0.0452167     0.82286   0.0781487  9.93203e-05
2950    0.038791    0.821668   -0.145378  0.000283231
2960   0.0395521    0.821809   -0.168104  0.000158643
2970   0.0356182     0.82108   -0.145443  0.000141937
2980   0.0367134    0.821283    0.145344  1.65131e-05
2990   0.0352879    0.821018    -0.52672  0.000151237
3000   0.0336886    0.820722    0.101357  -0.000118355
3010    0.037655    0.821457    0.436854  7.59481e-05
3020   0.0321697     0.82044   0.0564068  -5.1371e-05
3030   0.0386824    0.821648   -0.392789  -0.000321864
3040   0.0386069    0.821634   -0.437717  0.000168891
3050   0.0353046    0.821021   -0.795721  0.00022031
3060   0.0342007    0.820817   -0.414837  3.37815e-05
3070    0.034629    0.820896   -0.863486  -8.54738e-05
3080   0.0359102    0.821134   -0.728897  0.000136331
3090   0.0319024     0.82039    -0.10139  0.000332996
3100   0.0292503    0.819898    -0.48201  0.000282765
3110   0.0262471    0.819341   -0.818163  7.77953e-05
3120   0.0276944    0.819609   -0.930637  -0.000179381
3130   0.0298347    0.820007   -0.392592  8.67434e-07
3140    0.027677    0.819606   -0.840824  -0.000300708
3150   0.0358488    0.821122   -0.819214  -5.96437e-05
3160   0.0288699    0.819828    -1.35704  0.000344963
3170   0.0289496    0.819842    -1.22232  -0.000327871
3180   0.0354273    0.821044    -1.20071  -0.000163831
3190   0.0322262     0.82045   -0.639938  0.000485309
3200   0.0257211    0.819243    -1.19984   0.0002086
3210   0.0280542    0.819676      -1.312  -0.000303278
3220   0.0317867    0.820369     -1.4021  -8.6309e-05
3230   0.0297804    0.819996    -1.17807  9.62522e-05
3240   0.0298617    0.820012    -1.08856  8.78351e-05
3250   0.0280237    0.819671    -2.07438  0.000175445
3260   0.0263528    0.819361    -1.89522  0.000307519
3270   0.0218733    0.818529    -1.69311  -9.54491e-05
3280   0.0282617    0.819715   -0.954196  -0.000165277
3290   0.0251788    0.819143    -1.55928  0.000361637
3300    0.021029    0.818373    -2.07449  0.000406839
3310    0.017042    0.817633    -1.73819  0.000284436
3320   0.0153403    0.817317    -2.14164  3.77491e-05
3330   0.0162871    0.817493    -1.82809  0.000144362
3340    0.012453    0.816782    -2.25375  -0.000165968
3350   0.0196064    0.818109   -0.820308  -9.45817e-05
3360   0.0143447    0.817133    -2.32131  0.000384624
3370   0.0119139    0.816682    -2.03016  7.4165e-05
3380   0.0128614    0.816858    -2.63509  3.88415e-05
3390   0.0111371    0.816538    -1.78355  0.000199637
3400  0.00886864    0.816117    -1.62692  3.45362e-06
3410    0.011068    0.816525    -1.62711  0.000174048
3420  0.00538769    0.815471   -0.976791  0.000146965
3430  0.00812875    0.815979    -1.40295  -0.000256405
3440   0.0105158    0.816422    -1.35827  -0.000185164
3450    0.011832    0.816667    -2.23255  0.000319085
3460  0.00413409    0.815238    -2.20956  0.000165936
3470  0.00851331    0.816051    -2.07557  -0.000402534
3480   0.0121848    0.816732    -1.85147  1.28829e-05
3490  0.00825566    0.816003     -2.2324  0.000465937
3500  0.00286604    0.815003     -1.7841  0.000539941
3510  -0.00254317       0.814    -2.00798  -4.38532e-06
3520  0.00295375    0.815019    -1.62784  0.00026993
3530  -0.00794178    0.812998    -2.18732  0.00040639
3540  -0.00517404    0.813511    -1.42555  -0.000176489
3550  -0.00441199    0.813653    -1.58236  4.26806e-05
3560  -0.00602765    0.813353    -2.21037  0.000308531
3570  -0.0105826    0.812508     -2.0531  0.00011638
3580  -0.00835525    0.812921    -1.60493  1.60635e-05
3590  -0.0109039    0.812448    -1.76164  9.86618e-05
3600  -0.0103285    0.812555    -1.85145  -0.000417586
3610  -0.00255216    0.813998    -1.47113  -9.48708e-05
3620  -0.00843107    0.812907    -1.51552  0.000403691
3630   -0.010626      0.8125    -1.58273  1.58707e-05
3640  -0.00874848    0.812848    -1.64995  -0.000290283
3650  -0.00482032    0.813577    -1.78513  -0.000281737
3660  -0.00311374    0.813894     -1.5835  0.000322876
3670  -0.0112778    0.812379    -1.31413  0.00044438
3680  -0.0120013    0.812245    -1.56038  -7.69922e-05
3690  -0.00973799    0.812665    -1.40354  -0.000301768
3700  -0.00596597    0.813365    -1.89682  -0.000190143
3710  -0.00593513     0.81337    -1.82962  3.44401e-05
3720  -0.00665477    0.813237    -2.03151  0.000363725
3730  -0.0132096    0.812021    -1.35864  0.000175895
3740  -0.0101727    0.812584    -1.53842  -0.000275649
3750  -0.00769665    0.813043    -1.44885  0.000111015
3760   -0.012393    0.812172    -1.82958  -4.07691e-05
3770  -0.00688127    0.813195    -2.56927  -0.000267601
3780  -0.00704094    0.813165    -1.74022  0.000272436
3790    -0.01233    0.812184    -1.82966  -0.000164747
3800   -0.003746    0.813776    -1.27009  -0.000259409
3810  -0.00714182    0.813146    -1.78533  0.000196938
3820  -0.00768476    0.813046    -1.47155  0.000111673
3830  -0.00937528    0.812732    -1.24741  -0.000108284
3840  -0.00551908    0.813447    -1.11339  0.00011246
3850  -0.0116245    0.812315    -1.11315  0.000294508
3860  -0.0114092    0.812355    -1.02389  6.50088e-05
3870  -0.0129247    0.812073    -1.02354  6.51374e-05
3880   -0.012712    0.812113    -1.58376  0.000171734
3890  -0.0163594    0.811436    -1.29247  -0.000137407
3900  -0.00996384    0.812623   -0.866943  -0.000185501
3910  -0.0126493    0.812125   -0.754776  4.58612e-05
3920  -0.0108811    0.812453    -1.56149  -0.00028389
3930  -0.00697154    0.813178   -0.329533  -5.1146e-05
3940  -0.00985815    0.812642     -1.0913  0.000269834
3950  -0.0123682    0.812177    -1.40501  9.51117e-05
3960  -0.0117604    0.812289    -1.11383  -0.000148924
3970  -0.00938974    0.812729   -0.845596  7.60444e-05
3980  -0.0132813    0.812007   -0.845093  0.000605721
3990  -0.0215042    0.810482   -0.687799  0.00026336
4000  -0.0185485     0.81103    -1.00214  -3.02796e-05
4010  -0.0208986    0.810594   -0.710482  0.000235571
4020  -0.0232599    0.810156    -1.18118  -0.000218029
4030   -0.016538    0.811403   -0.957545  -0.000257802
4040  -0.0181038    0.811113    -1.40549  0.000186754
4050  -0.0202731     0.81071   -0.643616  8.73851e-06
4060  -0.0182786     0.81108    -1.67493  8.85739e-05
4070  -0.0220445    0.810381    -1.06962  0.000397201
4080  -0.0262226    0.809606   -0.957281  6.92335e-05
4090  -0.0234292    0.810125   -0.867644  -0.000279697
4100  -0.0206287    0.810644    -1.22661  -1.0377e-05
4110  -0.0232217    0.810163   -0.979921  9.09194e-06
4120  -0.0208105     0.81061    -1.13697  0.000220664
4130  -0.0276349    0.809344    -1.09178  8.98108e-05
4140  -0.0226068    0.810277    -0.98049  6.08484e-05
4150  -0.0288519    0.809119    -1.33849  0.000272115
4160  -0.0280491    0.809267    -1.18197  -2.98459e-05
4170   -0.028255    0.809229     -1.1597  -4.01105e-05
4180  -0.0272468    0.809416    -1.54082   0.0001629
4190   -0.031513    0.808625    -1.40632  0.000406984
4200  -0.0353865    0.807906    -1.96637  7.23498e-05
4210    -0.03296    0.808356    -1.06997  -0.000304435
4220  -0.0292978    0.809036    -1.74263  -0.00033608
4230  -0.0262384    0.809603    -1.45154  -0.000285978
4240  -0.0235783    0.810097    -1.69805  3.09383e-05
4250  -0.0268571    0.809489    -1.29468  0.000246189
4260   -0.028502    0.809183    -1.54093  4.14116e-05
4270  -0.0276854    0.809335    -1.63092  -9.75048e-06
4280   -0.028307     0.80922    -1.24993  -0.000154643
4290  -0.0245925    0.809909   -0.801893  -0.000123769
4300  -0.0258317    0.809679    -1.29518  0.00011381
4310  -0.0268687    0.809486    -1.65339  0.00014539
4320  -0.0287395    0.809139     -1.4964  0.000270701
4330  -0.0322827    0.808482    -1.20498  0.000104814
4340  -0.0308357     0.80875    -1.42949  -7.19001e-05
4350  -0.0308447    0.808749    -2.07937  -2.00473e-05
4360  -0.0304348    0.808825    -1.81059  2.18946e-05
4370  -0.0312826    0.808668    -1.40731  0.000116412
4380   -0.032763    0.808393    -1.25061  0.000106099
4390  -0.0334046    0.808274   -0.824576  0.000190802
4400  -0.0365791    0.807685    -1.56405  0.000222961
4410  -0.0378638    0.807447      -2.012  -0.000209484
4420  -0.0323894    0.808462    -1.18361  2.33563e-05
4430   -0.038331     0.80736     -1.4745  0.000552872
4440  -0.0434468    0.806411    -1.96732  0.000278589
4450  -0.0439027    0.806326    -1.92278  -2.87537e-05
4460  -0.0428718    0.806517    -1.69851  9.93043e-05
4470  -0.0458888    0.805958    -2.34848  -0.000210576
4480  -0.0386603    0.807299    -1.47505  -0.000188987
4490  -0.0421091    0.806659    -2.05768  0.000206126
4500  -0.0427828    0.806534    -1.90084  0.000250076
4510  -0.0471106    0.805731     -2.7746  5.69932e-05
4520  -0.0439226    0.806322    -2.48351  -0.00027642
4530  -0.0415822    0.806757    -1.81131  0.000165341
4540  -0.0472295    0.805709    -1.94544  -8.35782e-05
4550  -0.0399106    0.807067    -1.92328  0.000101521
4560  -0.0492599    0.805332    -1.67644  0.000274075
4570  -0.0453921     0.80605    -1.47472  -0.000115336
4580  -0.0469532     0.80576    -1.72179  0.000265384
4590  -0.0506998    0.805065    -1.42969  -0.000411096
4600  -0.0387313    0.807286    -1.63213  -0.000257979
4610  -0.0455402    0.806022    -1.49738  0.000232663
4620  -0.0433845    0.806422    -1.40827  5.85835e-05
4630  -0.0467119    0.805805   -0.937662  0.000366488
4640  -0.0507143    0.805062   -0.892274  -4.01106e-05
4650  -0.0459097    0.805954    -1.58739  -0.000304643
4660  -0.0446214    0.806193    -1.36356  0.000202978
4670  -0.0499693    0.805201     -1.3855  0.000136636
4680  -0.0473541    0.805686    -1.90126  -0.000273095
4690  -0.0445074    0.806214    -2.23761  4.86562e-05
4700  -0.0483272    0.805505    -2.34956  -4.10741e-05
4710  -0.0436859    0.806366    -2.48417  9.37141e-05
4720  -0.0502015    0.805158    -1.56493  -9.72001e-05
4730  -0.0417419    0.806727    -1.96913  -0.000118773
4740  -0.0478261    0.805598    -2.41704  0.000137808
4750   -0.044498    0.806216    -1.45379  -6.93928e-06
4760  -0.0476873    0.805624    -2.05862  3.7444e-05
4770  -0.0452469    0.806077     -1.8796  -4.0978e-05
4780  -0.0468677    0.805776    -2.23811  0.000139688
4790  -0.0480407    0.805558    -2.46203  -6.39968e-05
4800  -0.0455878    0.806014    -1.67806  -5.25115e-05
4810  -0.0469904    0.805753    -2.17105  2.66172e-05
4820  -0.0461201    0.805915    -2.21613  -0.000121327
4830  -0.0445639    0.806203    -2.70944  -0.000190304
4840  -0.0423141    0.806621    -2.03712  0.000198319
4850  -0.0485303    0.805468    -2.12638  0.000221226
4860  -0.0467386      0.8058    -2.08211  -7.60764e-05
4870  -0.0470088     0.80575    -2.39551  -1.89228e-05
4880  -0.0463601     0.80587    -1.90266  5.04391e-05
4890  -0.0480175    0.805563    -2.05947  0.000246895
4900   -0.051298    0.804954    -2.28354  0.000120219
4910  -0.0504219    0.805117    -2.03733  0.000144411
4920  -0.0541862    0.804418    -2.05914  5.14993e-05
4930  -0.0514519    0.804926    -2.46299  -0.000215797
4940  -0.0498703    0.805219    -2.19415  7.51128e-05
4950  -0.0529542    0.804647    -2.37336  -0.000135624
4960  -0.0471578    0.805722    -2.84429  0.000204745
4970  -0.0570491    0.803887    -3.24714  0.000673894
4980  -0.0606357    0.803222    -2.88843  -4.08173e-05
4990  -0.0562327    0.804039    -2.91153  -0.000755529
