Time   Number   
ps   
0          45          30
10          46          38
20          46          41
30          46          33
40          47          40
50          49          38
60          46          39
70          50          36
80          48          37
90          46          37
100          46          40
110          47          34
120          46          36
130          45          37
140          47          38
150          48          34
160          46          35
170          48          34
180          46          37
190          47          38
200          45          35
210          47          33
220          48          29
230          49          33
240          46          38
250          48          34
260          46          36
270          48          33
280          47          40
290          47          33
300          43          44
310          47          43
320          49          39
330          45          42
340          45          35
350          47          41
360          47          42
370          47          30
380          46          34
390          46          35
400          45          37
410          48          29
420          44          33
430          45          31
440          45          29
450          43          33
460          47          30
470          46          34
480          48          27
490          43          37
500          46          38
510          48          36
520          45          33
530          44          35
540          48          35
550          46          36
560          50          31
570          48          29
580          47          33
590          47          36
600          49          31
610          46          32
620          48          33
630          43          36
640          50          34
650          46          39
660          49          33
670          46          27
680          47          30
690          46          29
700          51          32
710          47          30
720          45          31
730          48          38
740          45          38
750          46          36
760          45          33
770          49          30
780          49          33
790          48          30
800          48          31
810          44          34
820          49          33
830          48          32
840          46          38
850          48          37
860          46          39
870          45          31
880          44          36
890          47          30
900          46          28
910          49          36
920          48          29
930          46          35
940          46          29
950          48          30
960          47          38
970          46          33
980          47          33
990          48          34
1000          48          37
1010          45          38
1020          48          31
1030          49          35
1040          46          35
1050          48          29
1060          45          38
1070          46          26
1080          49          34
1090          46          39
1100          48          32
1110          45          39
1120          46          36
1130          48          32
1140          45          34
1150          46          37
1160          47          39
1170          45          40
1180          48          35
1190          47          31
1200          49          35
1210          46          34
1220          46          34
1230          47          39
1240          47          37
1250          48          38
1260          46          40
1270          48          32
1280          49          41
1290          47          34
1300          48          37
1310          49          30
1320          47          34
1330          47          36
1340          49          38
1350          46          34
1360          50          32
1370          50          28
1380          49          33
1390          48          31
1400          49          34
1410          49          30
1420          50          35
1430          50          39
1440          46          39
1450          49          28
1460          52          32
1470          50          36
1480          50          34
1490          48          31
1500          44          45
1510          47          38
1520          48          38
1530          50          35
1540          46          38
1550          47          33
1560          48          38
1570          46          37
1580          50          36
1590          47          36
1600          46          40
1610          49          36
1620          48          33
1630          48          32
1640          50          35
1650          48          37
1660          50          36
1670          48          41
1680          49          33
1690          46          39
1700          50          41
1710          47          36
1720          49          37
1730          51          37
1740          47          38
1750          48          38
1760          50          37
1770          48          32
1780          48          32
1790          46          37
1800          47          37
1810          47          35
1820          46          37
1830          46          34
1840          46          41
1850          44          33
1860          42          38
1870          47          41
1880          47          31
1890          48          40
1900          44          42
1910          49          32
1920          46          44
1930          46          36
1940          46          41
1950          48          41
1960          45          38
1970          47          39
1980          48          37
1990          47          37
2000          47          37
2010          46          38
2020          46          37
2030          49          33
2040          46          36
2050          45          39
2060          45          35
2070          49          33
2080          45          34
2090          48          34
2100          44          41
2110          45          36
2120          45          34
2130          43          43
2140          47          37
2150          45          41
2160          47          42
2170          44          37
2180          47          36
2190          48          36
2200          48          33
2210          45          37
2220          48          35
2230          45          34
2240          49          32
2250          45          44
2260          48          33
2270          49          38
2280          47          30
2290          48          38
2300          50          35
2310          49          33
2320          48          38
2330          49          35
2340          45          31
2350          48          31
2360          46          35
2370          47          37
2380          47          31
2390          46          38
2400          45          31
2410          47          34
2420          46          38
2430          46          36
2440          46          32
2450          43          38
2460          48          31
2470          47          33
2480          47          32
2490          47          26
2500          44          41
2510          45          40
2520          43          34
2530          47          29
2540          47          35
2550          46          31
2560          44          32
2570          42          29
2580          41          39
2590          44          34
2600          43          38
2610          45          31
2620          45          31
2630          47          34
2640          43          32
2650          46          31
2660          42          38
2670          45          35
2680          47          31
2690          43          33
2700          45          34
2710          46          30
2720          45          35
2730          43          35
2740          48          25
2750          45          34
2760          45          38
2770          48          29
2780          45          43
2790          46          37
2800          45          33
2810          43          40
2820          48          37
2830          49          33
2840          49          37
2850          42          30
2860          47          32
2870          46          37
2880          42          33
2890          46          38
2900          45          31
2910          46          30
2920          49          32
2930          45          33
2940          48          30
2950          43          32
2960          45          36
2970          41          38
2980          45          38
2990          47          34
3000          43          34
3010          45          42
3020          47          36
3030          46          36
3040          46          26
3050          47          30
3060          45          36
3070          44          35
3080          43          42
3090          44          36
3100          47          35
3110          45          36
3120          47          36
3130          45          34
3140          47          37
3150          46          35
3160          45          33
3170          46          38
3180          44          33
3190          45          36
3200          48          36
3210          46          34
3220          45          42
3230          50          39
3240          46          40
3250          47          34
3260          43          38
3270          46          34
3280          44          36
3290          45          33
3300          48          35
3310          45          37
3320          40          40
3330          48          32
3340          45          38
3350          46          40
3360          44          32
3370          47          31
3380          44          39
3390          43          38
3400          47          27
3410          46          36
3420          45          37
3430          43          36
3440          45          35
3450          46          30
3460          46          30
3470          45          29
3480          45          41
3490          44          36
3500          45          38
3510          48          34
3520          44          31
3530          42          37
3540          48          32
3550          43          35
3560          44          34
3570          45          37
3580          44          32
3590          43          43
3600          45          34
3610          46          39
3620          46          40
3630          48          36
3640          48          35
3650          43          34
3660          47          35
3670          44          37
3680          46          34
3690          45          30
3700          45          43
3710          50          41
3720          49          35
3730          45          41
3740          45          31
3750          46          37
3760          45          35
3770          44          34
3780          43          36
3790          49          32
3800          44          32
3810          44          34
3820          42          33
3830          46          35
3840          43          39
3850          48          38
3860          47          27
3870          47          32
3880          45          35
3890          44          32
3900          44          37
3910          42          36
3920          43          34
3930          43          35
3940          46          36
3950          47          32
3960          45          34
3970          45          32
3980          44          33
3990          46          37
4000          44          37
4010          43          35
4020          44          34
4030          43          31
4040          45          29
4050          45          30
4060          46          30
4070          44          29
4080          44          34
4090          44          27
4100          43          40
4110          44          31
4120          45          33
4130          46          29
4140          45          32
4150          47          30
4160          44          37
4170          48          32
4180          45          34
4190          44          32
4200          41          36
4210          46          30
4220          43          35
4230          39          40
4240          41          37
4250          44          32
4260          45          34
4270          44          41
4280          44          31
4290          43          34
4300          46          32
4310          46          33
4320          45          34
4330          47          28
4340          48          35
4350          46          33
4360          43          30
4370          44          36
4380          46          37
4390          45          38
4400          46          32
4410          47          35
4420          45          39
4430          44          32
4440          48          33
4450          47          33
4460          44          36
4470          47          35
4480          48          29
4490          48          35
4500          46          33
4510          44          38
4520          44          30
4530          45          29
4540          43          32
4550          45          33
4560          44          34
4570          43          32
4580          44          30
4590          44          30
4600          45          38
4610          46          32
4620          46          29
4630          46          31
4640          44          33
4650          45          30
4660          45          29
4670          45          39
4680          44          32
4690          45          37
4700          43          32
4710          43          39
4720          42          30
4730          42          35
4740          44          28
4750          44          26
4760          48          31
4770          43          37
4780          41          40
4790          42          34
4800          44          34
4810          41          39
4820          46          32
4830          46          33
4840          45          35
4850          46          34
4860          44          30
4870          45          40
4880          47          28
4890          44          32
4900          47          30
4910          42          37
4920          42          37
4930          46          29
4940          45          32
4950          45          27
4960          46          39
4970          48          34
4980          47          32
4990          45          40
5000          46          34
5010          47          36
5020          47          36
5030          44          34
5040          45          36
5050          45          41
5060          47          33
5070          42          36
5080          44          41
5090          43          38
5100          47          36
5110          47          35
5120          45          37
5130          44          35
5140          45          48
5150          44          34
5160          44          40
5170          45          38
5180          48          43
5190          48          37
5200          43          47
5210          45          41
5220          46          39
5230          43          39
5240          48          32
5250          46          41
5260          46          39
5270          45          34
5280          46          34
5290          48          34
5300          43          37
5310          43          36
5320          44          33
5330          45          36
5340          43          38
5350          45          39
5360          43          36
5370          45          31
5380          44          39
5390          46          37
5400          47          32
5410          47          30
5420          46          39
5430          45          35
5440          44          33
5450          44          34
5460          45          34
5470          46          37
5480          43          44
5490          42          41
5500          49          35
5510          46          32
5520          46          36
5530          45          35
5540          45          38
5550          47          39
5560          47          28
5570          44          32
5580          46          32
5590          45          37
5600          45          33
5610          45          32
5620          44          26
5630          42          34
5640          47          35
5650          46          38
5660          48          28
5670          44          37
5680          44          32
5690          45          31
5700          47          33
5710          45          40
5720          47          36
5730          45          33
5740          41          29
5750          44          29
5760          46          32
5770          45          35
5780          44          30
5790          46          37
5800          45          35
5810          45          34
5820          48          31
5830          45          34
5840          46          35
5850          45          44
5860          47          35
5870          46          33
5880          45          40
5890          46          33
5900          45          42
5910          44          35
5920          45          30
5930          46          37
5940          43          32
5950          47          38
5960          44          38
5970          46          28
5980          48          30
5990          48          33
6000          44          39
6010          46          30
6020          44          34
6030          44          31
6040          44          40
6050          48          27
6060          45          37
6070          44          31
6080          48          35
6090          46          32
6100          44          33
6110          43          33
6120          42          34
6130          41          36
6140          46          37
6150          43          36
6160          45          34
6170          43          36
6180          43          31
6190          45          31
6200          43          38
6210          44          32
6220          46          35
6230          43          34
6240          45          32
6250          45          33
6260          45          33
6270          44          35
6280          44          38
6290          46          34
6300          46          37
6310          41          45
6320          44          33
6330          42          33
6340          45          30
6350          41          34
6360          45          33
6370          43          35
6380          48          35
6390          44          33
6400          42          38
6410          43          34
6420          45          31
6430          42          35
6440          42          34
6450          43          35
6460          46          30
6470          47          32
6480          44          35
6490          44          31
6500          45          30
6510          47          31
6520          45          30
6530          45          30
6540          44          34
6550          42          33
6560          45          30
6570          45          29
6580          47          31
6590          46          30
6600          44          31
6610          45          31
6620          46          32
6630          42          31
6640          47          26
6650          46          32
6660          45          25
6670          44          31
6680          46          31
6690          44          31
6700          42          35
6710          47          36
6720          48          33
6730          46          35
6740          44          31
6750          46          27
6760          46          40
6770          40          40
6780          42          40
6790          45          32
6800          44          29
6810          47          35
6820          43          35
6830          43          34
6840          45          34
6850          46          33
6860          46          38
6870          42          30
6880          43          30
6890          46          35
6900          45          31
6910          45          34
6920          42          33
6930          43          34
6940          45          40
6950          41          32
6960          44          35
6970          47          35
6980          45          28
6990          42          33
7000          46          34
7010          42          32
7020          43          29
7030          44          32
7040          41          30
7050          45          32
7060          44          33
7070          43          37
7080          47          39
7090          40          40
7100          43          34
7110          43          27
7120          44          36
7130          46          28
7140          44          34
7150          48          36
7160          46          34
7170          47          35
7180          46          32
7190          43          38
7200          42          36
7210          45          38
7220          45          38
7230          42          40
7240          46          38
7250          43          32
7260          41          32
7270          48          29
7280          46          37
7290          44          33
7300          43          37
7310          45          36
7320          42          36
7330          43          38
7340          42          39
7350          48          30
7360          47          33
7370          41          41
7380          49          31
7390          40          41
7400          47          32
7410          47          33
7420          46          29
7430          46          34
7440          47          30
7450          45          24
7460          45          33
7470          43          35
7480          44          30
7490          47          31
7500          46          28
7510          45          33
7520          43          37
7530          46          31
7540          46          34
7550          46          31
7560          43          34
7570          44          37
7580          46          35
7590          47          29
7600          45          28
7610          45          33
7620          45          36
7630          45          37
7640          45          29
7650          45          34
7660          43          33
7670          45          30
7680          45          39
7690          45          27
7700          49          34
7710          46          31
7720          45          34
7730          46          33
7740          46          30
7750          45          32
7760          45          38
7770          46          37
7780          44          35
7790          44          34
7800          41          38
7810          44          29
7820          47          32
7830          46          32
7840          48          36
7850          45          39
7860          47          39
7870          47          37
7880          47          36
7890          48          34
7900          45          34
7910          45          31
7920          44          37
7930          47          29
7940          47          29
7950          48          30
7960          43          35
7970          46          41
7980          47          34
7990          49          37
8000          45          36
8010          47          34
8020          50          31
8030          44          42
8040          42          37
8050          47          43
8060          47          38
8070          46          38
8080          40          35
8090          45          34
8100          45          33
8110          44          28
8120          47          39
8130          42          39
8140          49          37
8150          45          41
8160          47          35
8170          43          35
8180          44          40
8190          47          33
8200          46          34
8210          43          39
8220          45          42
8230          47          35
8240          45          32
8250          45          38
8260          46          36
8270          47          27
8280          45          34
8290          48          31
8300          43          38
8310          48          30
8320          47          34
8330          47          35
8340          44          37
8350          43          41
8360          47          34
8370          48          37
8380          45          29
8390          44          38
8400          45          41
8410          49          32
8420          50          32
8430          48          38
8440          47          32
8450          47          38
8460          48          37
8470          47          41
8480          46          40
8490          47          32
8500          48          32
8510          49          34
8520          45          33
8530          47          37
8540          45          35
8550          45          40
8560          49          36
8570          46          40
8580          49          34
8590          44          41
8600          50          34
8610          46          34
8620          46          33
8630          47          31
8640          47          34
8650          48          33
8660          47          38
8670          47          36
8680          47          36
8690          48          36
8700          49          35
8710          46          37
8720          47          40
8730          46          38
8740          49          33
8750          44          38
8760          45          47
8770          48          36
8780          41          36
8790          45          37
8800          41          36
8810          44          36
8820          47          31
8830          48          35
8840          46          39
8850          48          37
8860          48          36
8870          49          31
8880          47          33
8890          49          37
8900          49          31
8910          47          38
8920          48          35
8930          46          29
8940          45          32
8950          44          36
8960          45          33
8970          48          32
8980          47          32
8990          47          35
9000          45          36
9010          45          37
9020          44          32
9030          45          34
9040          47          34
9050          45          32
9060          46          37
9070          46          35
9080          46          37
9090          45          30
9100          44          38
9110          42          38
9120          45          40
9130          46          43
9140          43          38
9150          45          40
9160          45          42
9170          50          37
9180          46          49
9190          46          42
9200          48          37
9210          45          33
9220          47          34
9230          46          40
9240          45          41
9250          44          37
9260          48          37
9270          45          39
9280          46          35
9290          47          32
9300          43          29
9310          43          40
9320          44          39
9330          45          38
9340          44          42
9350          45          37
9360          46          41
9370          44          40
9380          52          31
9390          46          43
9400          48          40
9410          46          39
9420          47          43
9430          46          34
9440          50          38
9450          48          38
9460          43          41
9470          47          36
9480          47          38
9490          47          36
9500          47          38
9510          47          35
9520          44          39
9530          45          30
9540          48          33
9550          46          36
9560          48          33
9570          48          37
9580          48          36
9590          44          39
9600          45          34
9610          43          41
9620          45          40
9630          44          34
9640          44          38
9650          50          31
9660          47          34
9670          46          39
9680          45          48
9690          48          37
9700          48          33
9710          42          37
9720          47          39
9730          47          34
9740          45          39
9750          46          39
9760          48          42
9770          43          48
9780          44          47
9790          49          36
9800          48          40
9810          46          42
9820          45          33
9830          48          35
9840          45          35
9850          46          37
9860          47          36
9870          49          34
9880          42          39
9890          45          35
9900          47          31
9910          47          39
9920          45          39
9930          42          42
9940          46          40
9950          44          40
9960          45          40
9970          46          41
9980          45          40
9990          49          41
10000          49          42
