Time   C(t)   
ps   
0           1           1  2.91779e-10   0.0795699
10    0.195472    0.924981    0.770885   0.0401706
20    0.196588    0.925085    0.874692  0.000771279
30    0.180047    0.923542    0.140035  0.00176641
40     0.16126     0.92179    -0.17498  0.000995675
50    0.160133    0.921685   0.0343798  0.000998488
60     0.14129    0.919928     1.29628   0.0011659
70    0.136815    0.919511   -0.280429  5.95748e-05
80    0.140098    0.919817     1.19094  0.00017099
90    0.133396    0.919192    0.350421  0.00228315
100   0.0944353    0.915559    0.456178  0.00184101
110   0.0965754    0.915759    0.875616  -0.000715411
120    0.108744    0.916894     1.50554  0.000844884
130   0.0796777    0.914183    0.561115  0.00101194
140   0.0885046    0.915006     1.50626  0.000848432
150   0.0627091    0.912601     1.40204  0.000456848
160   0.0793677    0.914154    0.980449  -0.000267991
170   0.0680689    0.913101     1.50708  0.000458638
180   0.0701949    0.913299     1.71613  0.000348213
190   0.0611046    0.912451     1.92662  -0.000437895
200   0.0789528    0.914116      1.1895  0.000630619
210   0.0484922    0.911275     1.82158  0.00141724
220   0.0506081    0.911473     1.92611  0.000407788
230   0.0403365    0.910515     2.55634  -0.000776105
240   0.0661302     0.91292     1.81984  0.000466021
250   0.0310161    0.909646     1.08549  0.000633336
260   0.0534634    0.911739      4.2381  -0.000154339
270   0.0341028    0.909934     2.87208  0.000862367
280   0.0362161    0.910131     3.18709  -4.15172e-05
290   0.0349332    0.910011     2.24123  0.000412135
300   0.0279734    0.909362     3.71239  0.000639792
310   0.0221373    0.908818      3.7128  -0.000211645
320   0.0322063    0.909757     2.87156  -0.000609461
330   0.0343266    0.909954     3.71167  0.000186364
340    0.028479    0.909409     4.02781  1.51495e-05
350   0.0340236    0.909926     5.91872  -0.000383786
360   0.0361547    0.910125     4.23717  -9.90147e-05
370   0.0360039    0.910111     3.71136  0.00173116
380  0.00153156    0.906896     3.81712  0.00167577
390  0.00248847    0.906986     4.86874  -0.000955725
400   0.0206461    0.908679     4.76196  -0.000153572
410  0.00555991    0.907272     3.39676  -0.000327886
420   0.0272038     0.90929     2.65974  -0.000844149
430   0.0224429    0.908846     5.18334  -0.00055957
440   0.0383952    0.910334     3.81558  -0.000156288
450   0.0255687    0.909138     4.97224  0.000130368
460   0.0357878    0.910091     4.76165  0.000940256
470  0.00676355    0.907384     4.65702  0.000766644
480   0.0204549    0.908661     4.86679  0.000249806
490  0.00176743    0.906918     5.18221  0.000654238
500  0.00737017    0.907441     4.86689  -0.000561008
510   0.0129876    0.907965     5.91728   0.0007149
520  -0.00692783    0.906108     4.97327  0.00059901
530  0.00100741    0.906848     4.65712  -0.000736377
540  0.00779972    0.907481     5.70751  -0.000213978
550  0.00528696    0.907247     5.28715  0.000193235
560  0.00393502    0.907121     4.13131  0.00013529
570  0.00258116    0.906994     5.28777  0.000778246
580  -0.0116299    0.905669     5.39301  0.00060374
590  -0.00949364    0.905868     5.07677  -0.000740564
600  0.00318138     0.90705     5.28725  -0.00033121
610  -0.00286944    0.906486      5.3926  -0.000684984
620   0.0168811    0.908328     4.76093  -0.000861312
630   0.0143568    0.908092      5.7072  0.000429106
640  0.00829895    0.907527     4.76175  -0.000335301
650   0.0210628    0.908718     6.02212  -0.0007475
660   0.0232489    0.908921     6.02253  0.000489033
670   0.0112822    0.907806     4.97162  -0.000809664
680   0.0394422    0.910431     5.07533  -0.00134127
690   0.0381075    0.910307     3.49923  0.000902829
700   0.0213856    0.908748     5.39157  0.000489225
710    0.028323    0.909395     5.70628  -0.000338625
720   0.0281581    0.909379     5.07676  -0.000280296
730    0.033929    0.909917     5.81224  -0.000102211
740   0.0302023     0.90957      5.3926  0.000491845
750   0.0240921       0.909     5.39198  -0.000281639
760   0.0358351    0.910095     6.23281  -0.00189077
770   0.0619075    0.912526     4.65466  -0.000939041
780   0.0546159    0.911846     5.39188  0.000132414
790   0.0592592    0.912279     5.81224  -0.000345209
800   0.0615201     0.91249     5.49692  -0.000106429
810   0.0613878    0.912478     5.07625  -0.000166836
820   0.0648568    0.912801      6.5469  -0.000467076
830   0.0707293    0.913349     6.23178  -0.000407724
840   0.0730113    0.913562     6.33713  0.000673575
850   0.0572578    0.912093     5.81214  0.000252555
860   0.0679602    0.913091     5.81214  -0.00119182
870   0.0810942    0.914315     6.44176  -0.000289341
880   0.0737471     0.91363     5.91574  0.00115868
890   0.0579207    0.912154      7.8085  0.000132765
900   0.0710917    0.913383     6.12623  -0.000652448
910   0.0709697    0.913371     6.96654  -0.000108986
920   0.0732715    0.913586     6.86191  -0.000533906
930   0.0816478    0.914367     7.38721  7.26789e-05
940   0.0718179     0.91345      7.5976  0.000983818
950   0.0619714    0.912532      7.5977  0.000925138
960   0.0533151    0.911725     7.80798  -0.000108539
970   0.0641422    0.912735     7.59729  1.42226e-05
980   0.0530307    0.911699     6.44166  0.000196144
990   0.0602193    0.912369     7.28197  -4.69824e-05
1000   0.0539703    0.911786     6.75677  0.000503159
1010   0.0501561     0.91143     6.96706  -0.000476153
1020   0.0634934    0.912674     6.86109  0.000505364
1030   0.0400488    0.910488     7.70274  0.000565995
1040   0.0521735    0.911619     7.17672  -0.000599042
1050   0.0520297    0.911605     7.80839  0.000322133
1060   0.0457308    0.911018     7.70212  -0.000786684
1070   0.0677634    0.913072     7.80675  0.000385384
1080   0.0380232    0.910299     7.80881  0.000445087
1090   0.0588616    0.912242     7.49246  -0.00122049
1100   0.0624329    0.912575     8.54295  7.56513e-05
1110   0.0573486    0.912101     7.38742  -0.00122608
1120   0.0869545    0.914862      8.9628  -0.000978673
1130    0.076922    0.913926     7.28197  0.00069387
1140   0.0730772    0.913568     8.43791  0.000260449
1150   0.0717131    0.913441     8.33277  -0.000299057
1160   0.0790583    0.914126     8.85745  -0.00023683
1170   0.0764497    0.913882     7.38629  0.000261088
1180   0.0738365    0.913639     7.59647  -0.000175497
1190   0.0799596     0.91421     6.65071  0.000387429
1200    0.066088    0.912916     8.01765  -0.00011378
1210   0.0822352    0.914422     6.54587  -0.000362947
1220   0.0733469    0.913593     6.96582  0.000199531
1230   0.0782446     0.91405     6.22953  -0.000615917
1240   0.0856652    0.914742     6.22963  0.000892282
1250   0.0603989    0.912386     6.96603  0.000136856
1260   0.0829281    0.914486     7.80665  -0.00112083
1270   0.0828156    0.914476     6.85986  -0.000682939
1280   0.0965869     0.91576     5.91338  0.000327215
1290   0.0762713    0.913866      7.7012  0.00140129
1300   0.0685611    0.913147     6.86089  -0.000367837
1310   0.0836281    0.914552     6.01904  -0.000430704
1320   0.0771752     0.91395     4.02299  -0.000306057
1330   0.0897492    0.915122     5.70361  1.19217e-05
1340   0.0769367    0.913928     5.17934  -0.000243989
1350    0.094629    0.915577     5.70361  -0.000115315
1360    0.079243    0.914143     6.86037  0.00128524
1370   0.0689242    0.913181       6.125  -5.2096e-05
1380    0.080285     0.91424     6.12438  -0.000753892
1390    0.084002    0.914586     6.12387   0.0002678
1400    0.074929     0.91374     6.12469  -0.00120585
1410    0.108119    0.916835     5.59847  -0.000564908
1420   0.0862271    0.914794     5.49384  0.00129282
1430   0.0822627    0.914424     6.12459  -0.00114612
1440    0.109149    0.916931     5.91431  -0.000439046
1450   0.0910436    0.915243     6.85914  0.000846195
1460   0.0922255    0.915353      6.4394  -0.000118415
1470   0.0934119    0.915464     6.12449  0.000398072
1480   0.0842641    0.914611     6.75565  0.000721611
1490   0.0789797    0.914118     6.44001  -0.00134833
1500    0.111231    0.917125     5.59868  -0.00134916
1510    0.105963    0.916634     5.70372  -0.000510798
1520    0.121447    0.918078     6.12336  -0.000705695
1530    0.120077     0.91795     6.01832  0.000592394
1540    0.109599    0.916973     5.28346  -0.000383658
1550     0.12775    0.918666     4.65271  -0.000447867
1560    0.118556    0.917809     5.91349  -0.0001894
1570    0.131538    0.919019     8.12002  -0.000515528
1580    0.128867     0.91877     6.54444  -0.000517573
1590    0.141889    0.919984     7.48979  0.000530486
1600    0.118257    0.917781     6.75411  0.000857349
1610    0.124742    0.918385     7.48927  -0.000714964
1620    0.132556    0.919114     7.27991  -0.000124711
1630    0.127237    0.918618     6.33354  0.000927344
1640    0.114009    0.917385      6.2287  0.00112671
1650    0.104702    0.916517     6.64968  -0.000255783
1660    0.119125    0.917862     6.85904  -0.000255111
1670    0.109805    0.916992     6.33302  -0.000124807
1680    0.121621    0.918094     7.27879  0.000472189
1690    0.100361    0.916112     7.27837  0.000338561
1700     0.11485    0.917463     7.90984  -0.000587632
1710    0.112113    0.917208     7.06881  0.000606137
1720    0.102727    0.916333     7.90933  -0.000124647
1730    0.114606     0.91744      7.0684  7.61628e-05
1740    0.101204    0.916191     6.96428  -0.000792533
1750    0.130457    0.918918     6.33241  0.000477143
1760   0.0916611    0.915301     6.43848  0.000875503
1770    0.112947    0.917286      7.0683  -0.0010602
1780    0.112865    0.917278     7.06789  0.000410441
1790    0.104738     0.91652     7.38331  0.000410984
1800    0.104646    0.916511     6.85822  0.000143632
1810    0.101866    0.916252     6.96295  0.000614798
1820   0.0923495    0.915365     7.17344  0.000346615
1830   0.0949332    0.915606     7.48917  -5.65708e-05
1840    0.093481     0.91547     6.75369  -0.000529751
1850    0.105528    0.916594     6.96264  7.83999e-05
1860    0.091913    0.915324     6.75359  0.000483184
1870   0.0958646    0.915693     7.17354  0.000417664
1880   0.0835597    0.914545     7.69935  -0.000668013
1890    0.109225    0.916938     7.59349  -0.000871252
1900    0.100985     0.91617     6.96275  0.000825197
1910   0.0927209    0.915399     8.53946  9.97186e-06
1920    0.100785    0.916151     7.80398  -0.00033006
1930   0.0993221    0.916015     7.80337  -0.000194865
1940    0.104683    0.916515     7.80265  -5.81369e-05
1950    0.100485    0.916123     7.06778  0.000762457
1960   0.0894334    0.915093     7.69925  0.000421148
1970   0.0920619    0.915338     6.96316  0.000285858
1980   0.0837163     0.91456     8.11951  -5.75613e-05
1990   0.0932131    0.915445     7.06758  -0.000606936
2000    0.095855    0.915692     6.96254  -0.000195536
2010   0.0971238     0.91581     8.01303  0.000217589
2020   0.0915032    0.915286     7.48845  7.94865e-05
2030   0.0955341    0.915662     6.22665  8.03813e-05
2040   0.0898956    0.915136     8.43411  0.000772206
2050     0.08009    0.914222     8.43381  8.0765e-05
2060   0.0882803    0.914985     8.53802  -0.000750568
2070   0.0951014    0.915621     8.53864  0.000150855
2080   0.0852632    0.914704     7.38239  0.00126309
2090   0.0698395    0.913266     8.01344  -0.000196911
2100   0.0892014    0.915071     7.59257  0.000223406
2110   0.0653714    0.912849     7.90789  0.00154805
2120   0.0582403    0.912184     7.80337  -0.00166347
2130   0.0986407    0.915951     9.48255  8.56232e-05
2140   0.0565278    0.912025     8.32805  0.00134239
2150    0.071793    0.913448     8.22229  -5.42695e-05
2160   0.0576132    0.912126     7.90779  0.00050594
2170   0.0616742    0.912504     8.53864  8.60704e-05
2180   0.0558918    0.911965     7.80316  -0.000548288
2190   0.0726399    0.913527     8.64275  -0.0013949
2200   0.0837898    0.914567     8.43278  -0.00090446
2210   0.0907291    0.915214     9.37844  0.000861248
2220   0.0665648    0.912961     8.95869  0.00093233
2230   0.0720825    0.913475     8.85324  -0.000481554
2240   0.0761959    0.913859     9.16826  -0.00105103
2250   0.0931032    0.915435     8.85211  -0.000413062
2260   0.0844571    0.914629     8.95767  0.00129298
2270   0.0672437    0.913024     8.22311  0.000654046
2280   0.0713762    0.913409     8.74841  -0.000913313
2290   0.0855099    0.914727     7.80224  1.42865e-05
2300   0.0710905    0.913383     8.32723  0.000370362
2310   0.0781027    0.914036     7.90697  0.000515944
2320   0.0607716     0.91242     8.01283  0.000587344
2330   0.0663558    0.912941     8.43268  -0.000990114
2340   0.0805739    0.914267     8.43257  -0.00113582
2350   0.0890723    0.915059     7.69669  0.000589485
2360   0.0687842    0.913167     7.90748  0.000372599
2370   0.0816203    0.914364     7.80162  -0.000563086
2380   0.0800459    0.914218     8.11766  -0.000565387
2390    0.092928    0.915419     8.74738  -0.000276301
2400   0.0855719    0.914733     8.85273  0.00102665
2410   0.0723951    0.913504     9.16846  0.000157854
2420   0.0824148    0.914438     9.48389  -0.000930699
2430   0.0910091     0.91524     9.58821  -5.97347e-05
2440   0.0836095     0.91455     9.27309  0.00161552
2450   0.0586986    0.912227     8.95859  0.00103464
2460   0.0629168     0.91262     8.53761  -0.000860705
2470   0.0759127    0.913832       8.537  0.00082069
2480    0.046503     0.91109     8.43268  -5.93513e-05
2490   0.0770997    0.913943     8.64142  -0.00122937
2500   0.0710905    0.913383     8.53659  0.000748555
2510   0.0621287    0.912547     7.90676  0.000603357
2520   0.0590233    0.912257     8.53761  0.000236926
2530   0.0573901    0.912105     8.43227  -0.000500059
2540   0.0690245     0.91319     8.01119  -0.000204933
2550   0.0614888    0.912487      8.5372  -5.89035e-05
2560   0.0702026      0.9133     8.32692  -0.000206148
2570   0.0656117    0.912872     9.69243  0.00134993
2580    0.043204    0.910782      8.5372  0.000164215
2590   0.0623275    0.912565     8.43114  -0.000576318
2600   0.0547304    0.911857     9.16785  0.000686199
2610   0.0486035    0.911286     8.32712  0.000389986
2620   0.0469306     0.91113     9.27299  -0.000504662
2630   0.0586967    0.912227     7.90656  -0.000505173
2640   0.0570341    0.912072     9.16795  0.000166356
2650   0.0553696    0.911917     8.53761  0.000391776
2660   0.0491986    0.911341      8.5372  -0.000733469
2670    0.070039    0.913284     8.43145  -0.0008841
2680   0.0668806     0.91299     8.85181  -0.000511789
2690   0.0802747    0.914239     8.32661  -0.000813595
2700   0.0831525    0.914507      9.5877  -0.000137112
2710    0.083017    0.914495     8.64121  -0.00074245
2720   0.0980015    0.915892     8.95644  -0.000819124
2730   0.0993995    0.916022     8.43093  0.000921079
2740   0.0795799    0.914174     9.48255  0.000846131
2750   0.0824768    0.914444     9.06209  -0.000746126
2760   0.0945024    0.915566     10.5329  1.36476e-05
2770   0.0822039    0.914419     8.43165  0.000240697
2780   0.0896885    0.915117     9.16651  -0.00021516
2790   0.0865071     0.91482     8.95644  0.00161783
2800    0.057332      0.9121     8.95695  1.3072e-05
2810   0.0862457    0.914796     10.2175  -0.0011325
2820    0.079982    0.914212     9.37679  0.00116452
2830   0.0629552    0.912624      10.113  0.00116702
2840   0.0566416    0.912035     10.7437  9.34854e-05
2850   0.0610855     0.91245     8.95664  0.000402738
2860   0.0485869    0.911284     9.79798  0.000634391
2870   0.0483976    0.911267     9.48225  -0.000213211
2880   0.0528511    0.911682     9.90261  9.60425e-05
2890   0.0464768    0.911087      10.218  -0.000911874
2900   0.0710886    0.913382     10.6375  -0.00199905
2910   0.0864579    0.914815     9.37597  0.00118137
2920   0.0474612    0.911179     9.27206  0.00118086
2930   0.0628407    0.912613     8.53566  -0.000448794
2940   0.0564371    0.912016      9.9025  0.000719311
2950   0.0484545    0.911272       9.377  9.58506e-05
2960   0.0545201    0.911837     8.74646  9.70971e-05
2970   0.0465126    0.911091     8.43124  0.000488489
2980   0.0447503    0.910926     8.11571  -0.000137719
2990    0.049267    0.911348     10.0075  -0.000137815
3000   0.0475066    0.911183     10.4276  -0.00021727
3010   0.0536124    0.911753     8.85109  0.00104406
3020   0.0266253    0.909236     9.69232  0.000412966
3030   0.0453531    0.910983     9.06178  -0.00124286
3040   0.0514825    0.911554     8.95613  -0.00013871
3050   0.0481273    0.911241     8.32599  -0.000456944
3060   0.0606214    0.912406     9.90219  0.000813243
3070   0.0318624    0.909725     9.79716  0.00105103
3080   0.0396007    0.910446     9.69171  -0.000376594
3090   0.0393943    0.910427     10.4276  0.000658617
3100   0.0264284    0.909218     9.79767  -0.000538444
3110   0.0501632    0.911431     10.0069  -0.00149727
3120   0.0563738     0.91201     10.6368  0.000419422
3130   0.0417747    0.910649     9.79685  0.000740309
3140   0.0415676     0.91063      10.322  -0.000300911
3150   0.0477929     0.91121     9.58687    0.000503
3160   0.0315076    0.909692     10.1121  0.000341757
3170   0.0409578    0.910573     10.5321  -0.00143041
3180   0.0601158    0.912359     10.0063  -0.000221808
3190    0.045394    0.910986     9.79634  0.000746126
3200   0.0451933    0.910968     10.4274  0.000263261
3210   0.0401287    0.910495     9.27165  -0.000385735
3220    0.052908    0.911687     9.58585  -0.00046698
3230   0.0494683    0.911366     9.37567  0.000181793
3240   0.0492721    0.911348     9.90137  0.000100932
3250   0.0474497    0.911178     9.90117  0.00165247
3260   0.0162227    0.908266      10.112  0.000592298
3270   0.0356037    0.910074     9.48132  -0.00144952
3280   0.0452131     0.91097     10.2164  0.00182602
3290  -0.000916637    0.906668     10.0074  0.00117012
3300   0.0218107    0.908787     10.1113  0.00010953
3310  -0.00310723    0.906464     10.6373  -0.000223374
3320   0.0262782    0.909204     9.69119  -0.00178757
3330   0.0326442    0.909798     10.0061  0.00208906
3340  -0.0155029    0.905308     9.58657  0.00142922
3350  0.00405966    0.907132     9.69089  -0.00129643
3360   0.0104256    0.907726     8.95541  0.000275726
3370  -0.00145486    0.906618      10.006  0.000773995
3380  -0.00505429    0.906282     9.69089  0.00044368
3390  -0.0103285    0.905791     9.79644  0.000695212
3400  -0.0189585    0.904986     9.90137  -0.00155742
3410   0.0208199    0.908695     10.0057  -0.000304139
3420  -0.0128757    0.905553     8.85037  0.00169952
3430  -0.0131704    0.905526     9.79634  -0.000641486
3440  -4.60236e-05    0.906749     9.90096  0.000449785
3450  -0.0221661    0.904687     10.0059  -0.000140532
3460  0.00276461    0.907011     8.95448  -0.00148573
3470  0.00754851    0.907457     9.58554  0.000533682
3480  -0.00790903    0.906016     8.43001  0.000956492
3490  -0.0115813    0.905674     9.37546  2.91163e-05
3500  -0.00849135    0.905962     8.74533  -0.000224717
3510  -0.00708699    0.906093     9.48071  2.92441e-05
3520  -0.00907624    0.905907     9.37567  -0.000140947
3530  -0.00426805    0.906356      9.2695  -0.000822384
3540  0.00737145    0.907441     8.95479  -0.000568583
3550  0.00710361    0.907416     8.42939  -5.85203e-05
3560  0.00854185     0.90755     8.53402  2.70708e-05
3570   0.0065622    0.907366     9.16528  -0.000487371
3580   0.0182893    0.908459     8.11335  -5.85522e-05
3590  0.00773324    0.907475     9.26991  0.000541321
3600  0.00746285    0.907449     8.53433  0.000371641
3610  0.000300432    0.906782     8.42888  0.000544804
3620  -0.00343323    0.906433     8.95469  -0.000403569
3630  0.00837182    0.907534     8.74389  0.000461642
3640  -0.0126661    0.905573     9.16497  0.000807107
3650  -0.00777032    0.906029     9.90004  0.000464583
3660  -0.0219577    0.904706     8.84965  -0.000491749
3670  0.00206467    0.906946      9.2695  -0.00188348
3680   0.0157119    0.908219     8.11274  0.00151104
3690  -0.0281562    0.904128     8.84996  0.00194801
3700  -0.0232483    0.904586     8.74471  -0.000754116
3710  -0.0130739    0.905535     7.79854  -0.000493283
3720  -0.0133826    0.905506     8.63875  3.09061e-05
3730   -0.013692    0.905477     9.68996  -0.000232707
3740  -0.0087285     0.90594      8.5333  -0.000321015
3750  -0.00727173    0.906076     9.47917  0.00108868
3760  -0.0305021    0.903909     8.74482  -0.000234624
3770  -0.00257924    0.906513     9.05942  -0.00120454
3780  -0.00641134    0.906156     8.74389  -5.91595e-05
3790  -0.00139605    0.906623      9.2695  -0.000413573
3800  0.00186012    0.906927     8.74369  0.000651809
3810  -0.0144322    0.905408     10.0058  0.00118664
3820  -0.0218727    0.904714     9.47968  -0.000235839
3830  -0.00971545    0.905848     9.79552  -5.63469e-05
3840  -0.0207458    0.904819     9.47999  0.000299569
3850  -0.0157068    0.905289     9.47978  -0.000504853
3860  -0.0106487    0.905761     10.2153  -0.000865755
3870  0.00160827    0.906904     8.63865  -0.000508241
3880  -0.000483887    0.906708     8.84904  0.000479732
3890  -0.00798637    0.906009     9.47958  0.000390657
3900  -0.00829703     0.90598     10.4248  -0.000149673
3910  -0.00499292    0.906288     9.37402  0.000574144
3920  -0.0197799    0.904909     9.37443  0.000121515
3930  -0.00742322    0.906061     9.68945  -0.000693198
3940  -0.00591595    0.906202     9.68883  -0.000514793
3950  0.00287264    0.907021     9.89942  0.000486476
3960  -0.0156455    0.905295     10.3201  0.000851021
3970  -0.0141478    0.905434     9.90014  -0.000150184
3980  -0.0126418    0.905575     10.8455  0.000398711
3990   -0.022122    0.904691     10.0051  0.000582742
4000  -0.0242966    0.904488     10.1103  0.000309509
4010  -0.0283122    0.904114     10.6349  -5.76893e-05
4020  -0.0231428    0.904596     9.89973  -0.00125526
4030  -0.00320695    0.906455     9.79387  -0.000242807
4040  -0.0182867    0.905048     9.89901  0.000770863
4050  -0.0186242    0.905017     10.0046  0.000126213
4060   -0.020811    0.904813     10.6351  0.00059038
4070  -0.0304318    0.903916     10.0049  0.000313024
4080  -0.0270715    0.904229     9.89963  0.000315134
4090  -0.0367345    0.903328     10.9501  -0.00043096
4100  -0.0184523    0.905033     9.89901  -0.000430225
4110    -0.02813    0.904131     10.9506  0.00134408
4120  -0.0453339    0.902526     10.7409  -0.000339232
4130  -0.0213454    0.904763     9.68914  -0.000806531
4140  -0.0292032    0.904031     9.68894  3.44538e-05
4150  -0.0220344    0.904699     10.5294  3.60837e-05
4160  -0.0299249    0.903963     10.4245  0.00022379
4170  -0.0265102    0.904282     10.1094  -5.84244e-05
4180  -0.0287564    0.904072       10.95  0.000888128
4190  -0.0442728    0.902625     9.89912  0.000320919
4200  -0.0351748    0.903474     9.79418  0.00013398
4210  -0.0469524    0.902375     9.89922  0.000608566
4220  -0.0473461    0.902339     10.3194  0.000230342
4230  -0.0515592    0.901946     9.89912  3.97911e-05
4240   -0.048142    0.902265     9.68822  -0.000437991
4250  -0.0427994    0.902763     9.05819  0.000231684
4260  -0.0527756    0.901832     10.0037  0.000999383
4270   -0.062787    0.900899     10.8447  0.00023325
4280  -0.0574406    0.901397     10.0035  -0.000535504
4290   -0.052077    0.901898     9.68883  0.000910724
4300  -0.0756551    0.899699     10.6353  0.000234433
4310  -0.0567656     0.90146     9.47824  4.52884e-05
4320  -0.0765609    0.899615     9.47896  0.000624259
4330  -0.0692508    0.900296     10.2143  -0.00189905
4340  -0.0385799    0.903156     10.1084  0.000141682
4350  -0.0720845    0.900032      10.214  0.00120985
4360  -0.0627768      0.9009     10.2142  -0.00103019
4370  -0.0514806    0.901953     9.47814  -0.000544069
4380  -0.0518954    0.901915     9.47845  0.00043374
4390  -0.0601554    0.901144     9.68801  -0.00162898
4400  -0.0193158    0.904952     10.2132  -0.000744272
4410    -0.04527    0.902532     9.68863  0.00102217
4420  -0.0397593    0.903046     10.8441  0.000238204
4430   -0.050034    0.902088     10.1087  0.000336675
4440  -0.0464928    0.902418     10.0037  0.000339232
4450  -0.0568187    0.901455      10.424  0.000935014
4460  -0.0651931    0.900675     10.4243  -0.000653567
4470  -0.0437473    0.902674     10.3191  -0.000752837
4480  -0.0501363    0.902079     10.6341  -0.000358728
4490  -0.0365728    0.903343     10.0034  4.19646e-05
4500  -0.0509756       0.902      9.3731  -0.000862527
4510  -0.0193222    0.904952     10.2131  -0.000560114
4520  -0.0397733    0.903045     10.2135  0.000539659
4530  -0.0301154    0.903945     11.4745  -0.000261983
4540  -0.0345337    0.903533     10.3189  0.000846514
4550  -0.0470457    0.902367     9.68811  0.000242071
4560  -0.0393751    0.903082     10.9494  -0.000363299
4570  -0.0397797    0.903044     10.3183  -6.09172e-05
4580  -0.0381568    0.903196     10.4231  0.000142577
4590  -0.0426313    0.902778     10.4231  -0.00108044
4600   -0.016548    0.905211      10.633  -0.000673127
4610  -0.0291687    0.904034     11.5791  0.000139125
4620  -0.0193305    0.904951     10.5282  0.000449082
4630  -0.0381504    0.903196     10.8432  0.000550813
4640  -0.0303468    0.903924     10.9483  0.000761019
4650  -0.0533707    0.901777     10.9491  0.00106995
4660  -0.0517459    0.901928     10.9492  -0.00140155
4670  -0.0253398    0.904391     10.6331  -0.00202494
4680   -0.011247    0.905705     10.8429  -0.000271891
4690   -0.019902    0.904898     10.4231  0.00128224
4700  -0.0368917    0.903314     10.6337  -0.000690354
4710  -0.00609493    0.906185     10.2128  -0.000896565
4720  -0.0189604    0.904986      10.738  -0.000695308
4730  0.00781123    0.907482     11.5787  -0.00017131
4740  -0.0155342    0.905305     11.1586  0.00212936
4750  -0.0347759    0.903511     11.7893  0.000142609
4760  -0.0183864    0.905039     10.3179  -0.000695212
4770  -0.0208717    0.904807     10.5284  0.000986982
4780  -0.0381261    0.903198     11.1586  0.00120077
4790  -0.0448871    0.902568     10.9484  4.22202e-05
4800  -0.0389705     0.90312     10.9486  -0.000380654
4810   -0.037274    0.903278     10.6326  0.000148714
4820  -0.0419448    0.902842     10.5275  4.21884e-05
4830  -0.0381178    0.903199     11.1581  -0.00230291
4840  0.00411336    0.907137     11.2616  -0.000278027
4850  -0.0325572    0.903718     11.3684   0.0016402
4860  -0.0286906    0.904078      10.737   0.0017581
4870  -0.0677192    0.900439     10.3177  0.00272798
4880  -0.0832503    0.898991     11.2634  -0.000166612
4890   -0.064387     0.90075     10.2122  0.000483407
4900  -0.0929184    0.898089     11.0532  0.00015616
4910  -0.0675102    0.900459      10.212  -0.00146253
4920  -0.0636679    0.900817       9.791  -0.000276525
4930  -0.0619797    0.900974     10.4221   0.0008096
4940  -0.0798599    0.899307     9.89655  0.00124686
4950  -0.0869168    0.898649     10.5277  -0.000166452
4960  -0.0765308    0.899617     10.8421  -0.000384489
4970  -0.0792271    0.899366     11.0525  -0.000496895
4980  -0.0665929    0.900544      10.422  0.000491558
4990  -0.0890582    0.898449     9.89676  0.00148001
