Time   Number   
ps   
0          10          14
10          11          13
20          10          14
30           9          13
40           9          13
50          11          15
60           9          15
70          10          12
80           9          13
90          11          13
100           8          12
110          10          14
120           9          11
130           9          15
140          10          14
150          10          12
160          10          14
170          10          14
180           9          13
190          11          13
200          10          16
210          11          13
220           8          16
230           9          13
240           8          16
250           9          11
260          10          12
270           8          12
280          12          12
290          11          13
300          10          12
310           9          13
320           8          16
330          10          16
340          10          16
350          11          13
360           8          16
370          11          11
380          11          15
390          10          12
400          12          14
410           9          15
420          10          14
430           8          16
440           7          15
450          11          13
460          10          14
470           9          13
480           9          13
490          10          12
500          10          12
510           9          11
520          10          12
530           9          13
540           9          11
550           9          13
560          10          10
570          11          13
580          12          12
590          10          12
600           9          11
610           9          13
620           9          11
630           9          11
640           9          13
650          10          10
660           8          12
670           9          11
680          10          10
690           8          12
700          10          10
710          10          10
720           8          10
730           9          13
740          10          12
750           9          13
760          10          14
770           9          13
780          10          14
790           9          15
800           9          13
810          10          12
820           9          11
830           9          13
840           9          11
850           9          11
860           8          10
870          10          10
880          10          10
890           9          11
900           8          12
910           8          14
920           8          10
930          10          12
940           9          11
950           9          13
960           8          12
970           9          11
980           9          11
990          10          14
1000          10          12
1010           9          11
1020          10          12
1030           8          12
1040          10          12
1050          11          11
1060           9          13
1070          11          13
1080           9           9
1090           8          12
1100          10          10
1110           9          11
1120          10          10
1130           9          11
1140          10          10
1150           9          11
1160          10          10
1170           9           9
1180           9          11
1190          10          10
1200           9          11
1210          10          10
1220          10          10
1230          10          10
1240           9          11
1250           9          11
1260           9          11
1270          10          12
1280          10          10
1290          10          12
1300          10          12
1310          10          10
1320          10          10
1330           9          13
1340           9          11
1350          10          10
1360          10          14
1370          10          10
1380           9          11
1390           9          11
1400          11          11
1410           9          11
1420          10          12
1430          10          12
1440          10          10
1450          10          10
1460           9          11
1470          10          10
1480          10          10
1490           9          13
1500           9          11
1510           9          11
1520          10          10
1530           9          11
1540          10          10
1550           9           9
1560          10          12
1570          10          10
1580           7          11
1590          10          10
1600           9          13
1610           8          12
1620           9          11
1630           9          11
1640          10          10
1650          10          10
1660           9          11
1670          10          12
1680           9          11
1690          11          13
1700          11          11
1710           9           9
1720          11          11
1730           9          11
1740           9           9
1750          11          11
1760          11          11
1770          10          10
1780          10          10
1790          10          10
1800           9          11
1810           9          11
1820          11          11
1830           9          11
1840          10          12
1850          10          12
1860          10          12
1870           9          11
1880          10          10
1890           9          13
1900          11          11
1910          11          11
1920          11          11
1930          10          12
1940          10          10
1950          10          10
1960          11          11
1970           9          11
1980           9          11
1990          10          12
2000          10          12
2010          10          10
2020           9          11
2030           9          11
2040           9          11
2050           9           9
2060           9          11
2070           9          11
2080          10          12
2090          10          10
2100          11          11
2110          10          10
2120          10          10
2130           9          11
2140          10          10
2150          10          10
2160           9          11
2170           8          12
2180           9           9
2190          10          10
2200          10          10
2210           9          11
2220          10          10
2230          10          10
2240          10          10
2250           9          11
2260          10          10
2270          10          10
2280           9          11
2290          10          10
2300           9          11
2310           6          14
2320          10          10
2330          11          11
2340          11          11
2350          10          12
2360          11          11
2370           9          11
2380          10          10
2390          10          10
2400           9          11
2410          10          12
2420           9          11
2430          10          10
2440           9          11
2450          10          10
2460          10          10
2470          10          10
2480          10          10
2490           9          11
2500          10          10
2510           8          10
2520          10          10
2530          10          10
2540          10          10
2550          11          11
2560          10          10
2570           8          10
2580           8          10
2590           8          10
2600           9          11
2610          11          11
2620          11          11
2630          11          11
2640          11          11
2650           9          11
2660           9          11
2670           8          14
2680          11          11
2690           9          15
2700          10          12
2710          11          11
2720          11          11
2730          11          11
2740          11          13
2750          11          11
2760          11          11
2770          10          12
2780          11          11
2790          10          12
2800          10          10
2810          10          12
2820          11          11
2830          11          11
2840          10          10
2850          11          11
2860          10          12
2870           8          12
2880          11          11
2890          11          11
2900          11          11
2910          10          12
2920          10          10
2930          10          12
2940           9          11
2950          10          10
2960          11          11
2970           9          11
2980          11          11
2990          10          12
3000          10          10
3010          11          11
3020          10          10
3030           9          11
3040           8          14
3050           9          11
3060          10          10
3070          10          10
3080          10          10
3090          10          10
3100          10          10
3110          10          10
3120          10          10
3130          10          10
3140           8          12
3150          10          10
3160          10          10
3170          10          10
3180           9          11
3190          10          10
3200           9          11
3210           9           9
3220           9          11
3230          10          10
3240          10          10
3250          11          11
3260          11          11
3270          11          11
3280          11          11
3290          10          10
3300          11          11
3310           9          11
3320          10          10
3330           9           9
3340           9           9
3350          10          10
3360          10          10
3370           9          11
3380          10          10
3390           9           9
3400           9          11
3410          10          10
3420          10          10
3430          10          10
3440          10          10
3450          11          11
3460          11          11
3470          11          11
3480          11          11
3490          11          11
3500          11          11
3510          10          10
3520          10          12
3530          10          10
3540          11          11
3550          11          11
3560           9           9
3570          11          11
3580          11          11
3590          10          10
3600          11          11
3610          11          11
3620          11          11
3630          10          12
3640           9           9
3650          10          10
3660          10          10
3670          11          11
3680          10          10
3690          10          12
3700           9           9
3710          10          10
3720           9          11
3730           9          11
3740          11          11
3750          11          11
3760           8          10
3770           9           9
3780           9          11
3790          10          10
3800           9          11
3810           9          11
3820          10          12
3830          10          10
3840           9          11
3850           9           9
3860          10          12
3870          11          11
3880           8          10
3890          11          11
3900          11          11
3910          10          12
3920          10          10
3930           8          12
3940          10          10
3950          10          10
3960          11          11
3970           9          11
3980           9          11
3990          11          11
4000           9          11
4010           9           9
4020           7           9
4030          11          11
4040           9           9
4050          11          11
4060          11          11
4070           9          13
4080          11          11
4090          11          11
4100           7          13
4110          11          11
4120          11          11
4130          11          11
4140          11          11
4150          10          10
4160           9          11
4170          11          11
4180          11          11
4190          11          11
4200          10          12
4210          11          11
4220          11          11
4230          11          11
4240          11          11
4250          11          11
4260           9          11
4270          11          11
4280          10          12
4290          10          10
4300          10          10
4310           9          11
4320          11          11
4330          10          10
4340           9          11
4350          11          11
4360           9          13
4370           9           9
4380          10          12
4390          10          14
4400          10          10
4410          10          10
4420          10          10
4430          10          10
4440          10          10
4450           9           9
4460           8           8
4470           7           9
4480          10          10
4490           9          11
4500           9          11
4510           9          11
4520          10          10
4530          10          10
4540           9           9
4550           9          11
4560          10          10
4570          10          10
4580          10          10
4590          10          12
4600          11          11
4610           8          10
4620          11          11
4630          10          10
4640          11          11
4650          10          10
4660          10          12
4670          10          12
4680          10          10
4690           8          10
4700           9          13
4710           9          13
4720          11          11
4730          11          11
4740          11          11
4750          11          11
4760          11          11
4770           9           9
4780          11          11
4790          10          10
4800          10          12
4810           9          11
4820           9           9
4830          10          10
4840          11          11
4850          11          11
4860          11          11
4870          10          10
4880          10          12
4890          11          11
4900          10          10
4910          11          11
4920          10          12
4930          11          11
4940           9          11
4950           9          13
4960          11          11
4970          11          11
4980          11          11
4990           9           9
5000          10          12
5010          11          11
5020          11          11
5030           8          10
5040           9           9
5050          10          10
5060          10          12
5070           8          10
5080          11          11
5090          10          12
5100          11          11
5110          11          11
5120          10          12
5130          11          11
5140           9          11
5150          11          11
5160           9           9
5170          11          11
5180          10          12
5190          11          11
5200          11          11
5210           9           9
5220          11          11
5230           9           9
5240          10          12
5250          11          11
5260          10          10
5270          10          10
5280          11          11
5290           9           9
5300           8          12
5310          10          10
5320           9           9
5330          10          12
5340           9          11
5350          11          11
5360          10          10
5370           9          11
5380          10          10
5390          11          11
5400          11          11
5410          11          11
5420          10          10
5430           9          11
5440          11          11
5450          11          11
5460          11          11
5470          11          11
5480          10          10
5490          10          10
5500          11          11
5510          11          11
5520          10          12
5530          10          12
5540          11          11
5550          10          10
5560          10          10
5570          10          10
5580          10          12
5590           9           9
5600          10          10
5610           8          12
5620          10          10
5630           9          11
5640          11          11
5650          10          12
5660          10          10
5670          11          11
5680          10          10
5690          11          11
5700          11          11
5710          10          10
5720          10          12
5730          11          11
5740          11          11
5750          11          11
5760          10          12
5770           8          10
5780          11          11
5790          10          10
5800          11          11
5810          10          10
5820          11          11
5830           8          10
5840           9           9
5850          11          11
5860          11          11
5870          11          11
5880          11          11
5890          10          10
5900          11          11
5910          10          10
5920           8          10
5930           8          10
5940           8          10
5950           8          10
5960          10          10
5970          10          10
5980           9          11
5990          10          10
6000          10          10
6010          10          10
6020           9           9
6030           8          10
6040          10          10
6050           7           9
6060          10          10
6070           9          11
6080           9           9
6090           9           9
6100          10          10
6110           9           9
6120           8           8
6130           8          10
6140           9           9
6150          10          10
6160          10          10
6170          10          10
6180           9           9
6190           9          11
6200           9           9
6210          10          12
6220          10          12
6230           9           9
6240          10          10
6250          10          12
6260          10          12
6270           9          11
6280          10          10
6290          10          10
6300          10          10
6310          10          10
6320           9          11
6330          10          10
6340          10          10
6350           9           9
6360          10          10
6370          10          10
6380          10          10
6390           9           9
6400          10          10
6410           9          11
6420          10          10
6430          10          10
6440          10          12
6450           8          12
6460          11          11
6470          10          12
6480          11          11
6490           9          11
6500          11          13
6510          11          11
6520          11          11
6530          10          10
6540           9           9
6550          11          13
6560           9          13
6570          11          11
6580          10          10
6590          10          12
6600          11          11
6610          10          14
6620          10          10
6630          11          11
6640          11          11
6650          11          11
6660          11          11
6670          11          11
6680          11          11
6690          11          11
6700          12          12
6710          10          10
6720          11          11
6730          10          12
6740          11          13
6750          10          14
6760          11          13
6770          11          13
6780          10          16
6790          10          12
6800          11          13
6810          11          11
6820          10          12
6830          10          10
6840          11          11
6850          11          11
6860          11          11
6870          11          11
6880          11          11
6890           9           9
6900          11          11
6910          10          10
6920          10          10
6930          11          13
6940          11          11
6950          11          13
6960          10          12
6970          10          10
6980          10          10
6990          11          13
7000          10          12
7010          11          11
7020          11          13
7030          10          10
7040          12          14
7050          10          12
7060          10          12
7070          10          10
7080          10          12
7090          10          12
7100          11          11
7110          10          10
7120           9           9
7130          10          10
7140          10          10
7150           8          10
7160          10          10
7170           9          11
7180          10          10
7190          10          10
7200           8          10
7210           9          11
7220          10          10
7230          10          10
7240          10          10
7250           9           9
7260          10          10
7270           8          10
7280           8          10
7290           9          11
7300          10          10
7310          10          10
7320          10          10
7330           9          11
7340          10          10
7350          11          11
7360          11          11
7370          11          13
7380          10          12
7390          10          10
7400          11          11
7410          11          11
7420          11          11
7430          12          12
7440          10          12
7450          11          11
7460          11          11
7470          11          11
7480          10          12
7490           8          10
7500          10          12
7510           9          11
7520          10          10
7530          10          12
7540          10          10
7550          10          12
7560          10          10
7570          10          10
7580           9           9
7590           9           9
7600          10          10
7610           8          10
7620          10          10
7630          10          10
7640          10          10
7650           8          12
7660          10          10
7670          10          10
7680          10          10
7690          11          11
7700           9          11
7710          10          10
7720           8          10
7730           8           8
7740           9          11
7750           9           9
7760           9           9
7770           9           9
7780          10          10
7790          10          10
7800           9           9
7810           8          10
7820           9           9
7830          10          10
7840           9           9
7850           9           9
7860          10          10
7870          10          10
7880           9           9
7890           9           9
7900          10          10
7910          10          10
7920          10          10
7930           9           9
7940          10          10
7950           9           9
7960          10          10
7970           8           8
7980           8          10
7990           9           9
8000           9           9
8010          10          10
8020           9          11
8030          10          10
8040           9          11
8050          10          10
8060           7          11
8070           8           8
8080           9          11
8090          10          10
8100           8           8
8110           9          11
8120           9          11
8130           9           9
8140           9           9
8150           9           9
8160          10          10
8170          10          10
8180          11          11
8190          10          10
8200          10          10
8210          10          12
8220          11          11
8230          11          11
8240          10          10
8250          10          10
8260           9          11
8270           8          10
8280          11          11
8290          11          11
8300           9           9
8310          10          12
8320           9          13
8330          10          12
8340          10          12
8350          10          10
8360           9           9
8370          10          12
8380          10          12
8390          11          11
8400          11          11
8410          10          12
8420          11          11
8430          10          10
8440           8          12
8450          10          12
8460          10          10
8470          11          11
8480           9          13
8490           9          13
8500          11          11
8510          10          10
8520          11          11
8530          10          10
8540           9           9
8550          10          12
8560          10          12
8570          11          11
8580          10          10
8590          11          11
8600           8          16
8610          11          11
8620           8          10
8630          11          11
8640          10          12
8650          11          11
8660          11          11
8670          11          11
8680          11          11
8690           9          11
8700           9           9
8710          10          10
8720           8          10
8730           8           8
8740           7           9
8750           9          11
8760           8           8
8770           9           9
8780          10          10
8790           8          12
8800           8          10
8810          10          10
8820          10          10
8830          10          10
8840           9          11
8850           9          11
8860           9           9
8870          10          10
8880           8           8
8890           8          10
8900          10          10
8910          10          10
8920           9           9
8930           9           9
8940           9           9
8950          10          10
8960           9           9
8970          10          10
8980           7           9
8990           9           9
9000          10          10
9010          10          10
9020           7           9
9030          10          10
9040           9          11
9050          10          10
9060          10          10
9070           9           9
9080           9           9
9090           9          11
9100           9           9
9110          10          10
9120          10          10
9130          10          10
9140          10          10
9150          10          10
9160           9           9
9170           9           9
9180          10          10
9190           9           9
9200          10          10
9210          10          10
9220           9          11
9230           9           9
9240           8          12
9250          10          10
9260          10          10
9270          10          10
9280           9          11
9290          10          10
9300           8          10
9310           9           9
9320           9           9
9330           9          11
9340           9          11
9350           9           9
9360           8          10
9370          10          10
9380           9           9
9390           9           9
9400           9           9
9410           9           9
9420           9          11
9430           8          12
9440           9          11
9450           8          10
9460           9           9
9470           9           9
9480           9           9
9490          10          12
9500           9           9
9510          10          10
9520           9           9
9530          10          10
9540           9           9
9550          10          10
9560           7          11
9570          10          10
9580           9           9
9590           9           9
9600           9           9
9610           9           9
9620           8           8
9630          10          10
9640          10          10
9650           8          10
9660           9           9
9670           9          11
9680          10          10
9690           9           9
9700          10          10
9710          10          10
9720           9          11
9730          10          10
9740          10          10
9750          10          10
9760          10          10
9770           9           9
9780          10          10
9790           8          12
9800          10          10
9810           7           9
9820          10          10
9830           9           9
9840           7           9
9850           8          12
9860          10          10
9870          10          10
9880           9           9
9890           8          10
9900           9           9
9910           9           9
9920          10          10
9930           9           9
9940          10          10
9950          10          10
9960          10          10
9970           8          10
9980           9           9
9990          10          10
10000          10          10
