Time   C(t)   
ps   
0           1           1  2.45743e-10   0.0235971
10     0.77173    0.792477    -2.06709   0.0134986
20    0.730029    0.754566    -1.39869  0.00340001
30     0.70373    0.730657   -0.602209  0.00257241
40    0.678581    0.707793    -1.56984  0.00240318
50    0.655666    0.686962   -0.605201  0.00204593
60    0.637662    0.670594   -0.291656  0.00178005
70    0.620065    0.654596   -0.441542  0.00168714
80    0.603919    0.639918    0.355682  0.00160819
90    0.587902    0.625356   0.0576692   0.0015177
100    0.573565    0.612322   -0.611784  0.00142302
110    0.559441    0.599482   -0.148771  0.00136634
120    0.546238    0.587479    -0.29862  0.00126206
130      0.5342    0.576535    0.610714  0.00126267
140    0.520985    0.564521   -0.912208  0.00119018
150    0.510396    0.554895   -0.821035  0.00107107
160    0.499564    0.545047   -0.394926  0.00103578
170    0.489681    0.536062    -1.32469  0.00113039
180    0.476956    0.524493   -0.340765  0.00124026
190    0.464875    0.513511   -0.452604  0.00101992
200    0.456557    0.505949    -0.10152  0.000913213
210    0.446611    0.496907    0.344021  0.000896712
220    0.438623    0.489645   -0.752448  0.000874066
230     0.42913    0.481014   -0.901282  0.000929946
240    0.420024    0.472736   -0.233515  0.000867464
250    0.411781    0.465242   -0.735719  0.000874345
260    0.402537    0.456839    -0.64313  0.000853539
270     0.39471    0.449723  -0.0496447  0.000656353
280     0.38941    0.444905     1.06395  0.000569482
290     0.38332    0.439368    0.524936  0.000614795
300    0.377114    0.433726    0.115647  0.000662443
310    0.370071    0.427323    0.969551  0.000650373
320    0.364107    0.421901     1.15493  0.000582618
330    0.358419     0.41673     1.02446  0.000520879
340    0.353689     0.41243     1.46991  0.000524065
350    0.347938    0.407201    0.707464  0.000527143
360    0.343146    0.402846    0.818596  0.000517964
370    0.337578    0.397784    0.929564  0.000558358
380    0.331979    0.392693    0.892042  0.000561617
390    0.326346    0.387572     1.69039  0.000526482
400     0.32145    0.383121     1.00292  0.000487006
410    0.316606    0.378717     1.59686  0.000467196
420    0.312106    0.374626     1.89311  0.000466104
430    0.307284    0.370242     1.03843  0.000488973
440    0.302326    0.365736    0.833784  0.000452378
450    0.298236    0.362017     1.09339  0.000440851
460    0.293509     0.35772    0.368975  0.000455381
470    0.289129    0.353737    0.573111  0.000445855
480    0.284592    0.349613    0.758433  0.000405873
490    0.281011    0.346358    0.850604  0.000353211
500    0.277528    0.343191      0.8874  0.000325587
510    0.274499    0.340438    0.775706  0.000350532
520    0.270517    0.336818     2.07537  0.000394404
530    0.266611    0.333267     2.00018  0.000361493
540    0.263287    0.330245     1.62863  0.000286269
550    0.260886    0.328062     2.37108  0.000296429
560    0.257359    0.324855     1.51685  0.000359412
570    0.253698    0.321527     1.83239  0.000373948
580     0.24988    0.318056     2.42656  0.000342958
590    0.246839    0.315291     1.53454  0.000287442
600    0.244131    0.312829     1.64536  0.000313596
610    0.240567    0.309589     1.03253  0.000381217
620    0.236507    0.305898     1.86808  0.000229771
630    0.235971    0.305411     1.81161  0.000143088
640    0.233645    0.303296     1.47729  0.000317162
650    0.229628    0.299645     1.58873  0.000360465
660    0.226436    0.296742     1.55139  0.000344151
670    0.222745    0.293387    0.845381  0.000282829
680    0.220779      0.2916     1.16069  0.000176408
690    0.219217     0.29018    0.751396  0.00024753
700    0.215829    0.287099    0.714147  0.000254446
710    0.214128    0.285553    0.918048  0.000283061
720    0.210167    0.281953    0.844329  0.000307204
730    0.207984    0.279968     0.67697  0.000226099
740    0.205645    0.277842     1.14058  0.000240558
750    0.203173    0.275594     1.10341  0.000220581
760    0.201234    0.273831    0.769087  0.000201677
770    0.199139    0.271927     1.38211  0.000165299
780    0.197928    0.270825     1.47438  0.000150517
790    0.196129     0.26919    0.935557  0.000234306
800    0.193242    0.266565     1.69705  0.000213052
810    0.191868    0.265316     1.04676  0.000197331
820    0.189295    0.262977     1.69687  0.000196619
830    0.187935    0.261741     1.10172  0.000175297
840    0.185789     0.25979    0.730786  0.000217043
850    0.183595    0.257795     1.36148  0.000191357
860    0.181962    0.256311    0.915364   0.0002104
870    0.179387    0.253969     1.50981  0.000249031
880    0.176981    0.251783     1.39859  0.000271509
890    0.173956    0.249033     2.40171  0.000203031
900    0.172921    0.248091     1.26843  0.000153085
910    0.170895    0.246249     1.67688  0.000176461
920    0.169391    0.244883     1.54692  0.000102106
930    0.168853    0.244393     1.02624  0.000126605
940    0.166859    0.242581     0.93329  0.000228173
950    0.164289    0.240244     0.59879  0.000180098
960    0.163257    0.239306    0.375984  0.000120976
970     0.16187    0.238044    0.747008  0.000167626
980    0.159905    0.236258    0.951435  0.000186778
990    0.158134    0.234648    0.802855  0.000196128
1000    0.155982    0.232692    0.858592  0.000125511
1010    0.155624    0.232366     1.17355  0.000106996
1020    0.153842    0.230747     1.39627  0.000146072
1030    0.152702     0.22971    0.746282  0.000136416
1040    0.151114    0.228266     0.46772  0.000122225
1050    0.150258    0.227488    0.820128  0.000138146
1060    0.148351    0.225755    0.634317  0.000187545
1070    0.146507    0.224078    0.801095  0.000160012
1080    0.145151    0.222845   -0.127779  0.000182789
1090    0.142851    0.220755    0.206485  0.000161859
1100    0.141914    0.219902  0.00200398  8.71077e-05
1110    0.141109    0.219171   -0.425266  3.00407e-05
1120    0.141313    0.219356   -0.258324  9.87798e-05
1130    0.139133    0.217375    0.540695  0.000169776
1140    0.137917    0.216269    0.169127  9.13106e-05
1150    0.137307    0.215714    0.373263  3.85322e-05
1160    0.137147    0.215569   -0.128233  7.36572e-05
1170    0.135834    0.214375    0.577654  0.000114462
1180    0.134857    0.213487    0.094701  0.000106835
1190    0.133697    0.212433    0.317435  8.43905e-05
1200     0.13317    0.211953   0.0201117  8.23289e-05
1210    0.132051    0.210936  -0.0912736  0.000129078
1220    0.130588    0.209606   0.0946828  0.000157792
1230    0.128895    0.208067   -0.313917  0.000111465
1240    0.128359    0.207579   -0.518453  8.78431e-05
1250    0.127138     0.20647   -0.277103  0.000142764
1260    0.125504    0.204984     -1.0198  0.000107656
1270    0.124985    0.204512   -0.815939  4.50507e-05
1280    0.124603    0.204164   -0.407775  7.83596e-05
1290    0.123418    0.203087   -0.444951  9.11161e-05
1300     0.12278    0.202508   0.0749245  0.000101711
1310    0.121384    0.201238    0.260591  9.27076e-05
1320    0.120926    0.200822    0.260192  5.84465e-05
1330    0.120215    0.200175     1.00251  0.000120753
1340    0.118511    0.198627     1.39222  0.000132519
1350    0.117564    0.197766     1.07697  0.000109779
1360    0.116315    0.196631     1.44816  8.92099e-05
1370     0.11578    0.196144    0.705007  3.85482e-05
1380    0.115544     0.19593      1.3733  0.000101205
1390    0.113756    0.194304    0.463494  0.000148905
1400    0.112566    0.193222     1.26175  0.000114457
1410    0.111467    0.192223    0.555919  0.00013333
1420      0.1099    0.190798     1.52163  0.00014524
1430    0.108562    0.189582      1.0759  0.000142093
1440    0.107058    0.188214     1.81875  0.000131927
1450    0.105923    0.187183     1.87396  0.000157961
1460    0.103899    0.185342     1.09419  0.000150086
1470    0.102922    0.184454     1.52119  0.000109529
1480    0.101708    0.183351     1.44718  3.82792e-05
1490    0.102156    0.183758    0.703737  4.4325e-05
1500    0.100822    0.182545    0.611004  0.000120699
1510   0.0997422    0.181564     1.39079  9.74733e-05
1520   0.0988721    0.180773     1.81788  6.47221e-05
1530   0.0984477    0.180387     1.44649  0.000107355
1540    0.096725    0.178821     1.79934  0.000173645
1550   0.0949748     0.17723     1.50203  0.000105503
1560    0.094615    0.176902      1.7062  7.5081e-05
1570   0.0934732    0.175864     1.16759  7.87713e-05
1580   0.0930395     0.17547    0.925801  8.72869e-05
1590   0.0917275    0.174277    0.721573  9.93174e-05
1600   0.0910532    0.173664    0.888497  0.000104356
1610   0.0896404     0.17238    0.851501   8.789e-05
1620   0.0892954    0.172066    0.813817  9.29348e-05
1630   0.0877817     0.17069    0.907022  0.000140813
1640   0.0864791    0.169506     1.48298  0.000136387
1650   0.0850539     0.16821     1.79818  9.60406e-05
1660   0.0845583     0.16776     1.98342  7.47636e-05
1670   0.0835587    0.166851      1.6306  8.45131e-05
1680    0.082868    0.166223     1.70468  9.67439e-05
1690   0.0816238    0.165092     1.37078  0.000134191
1700   0.0801842    0.163783    0.887626  0.000108035
1710   0.0794631    0.163128    0.571833  0.000109537
1720   0.0779935    0.161792     0.12602  0.000147149
1730   0.0765201    0.160452    0.237623  0.000130603
1740   0.0753814    0.159417    0.516385  5.35693e-05
1750   0.0754487    0.159478    0.423089  6.95072e-05
1760   0.0739913    0.158153    0.980106  0.000124111
1770   0.0729665    0.157221    0.776114  6.86243e-05
1780   0.0726188    0.156905    0.682746  2.8738e-05
1790   0.0723917    0.156699     0.70118  5.55724e-05
1800   0.0715073    0.155895    0.886792  0.000105613
1810   0.0702795    0.154779    0.701072  5.70755e-05
1820   0.0703658    0.154857    0.719433  0.000114669
1830   0.0679861    0.152694    0.831109  0.000109922
1840   0.0681674    0.152859     1.42514  9.98788e-06
1850   0.0677863    0.152512     1.05337  5.77614e-05
1860   0.0670122    0.151808    0.849271  6.64681e-05
1870    0.066457    0.151304     1.18317  6.29649e-05
1880   0.0657529    0.150663    0.811641  0.000107379
1890   0.0643094    0.149351     1.23915  0.000107601
1900   0.0636008    0.148707     1.57328  7.83298e-05
1910   0.0627428    0.147927     1.09038  0.000110603
1920   0.0613888    0.146696     1.07182  8.24165e-05
1930   0.0610945    0.146428     1.12722  0.000106197
1940   0.0592648    0.144765     1.03468  0.000100181
1950   0.0590908    0.144607    0.737051  8.81238e-05
1960   0.0575024    0.143163      1.1088  0.000110606
1970   0.0568787    0.142596     1.29425  7.61185e-05
1980     0.05598    0.141779     1.53611  5.38884e-05
1990    0.055801    0.141616    0.792808  5.40702e-05
2000   0.0548986    0.140796     1.01558  0.000120316
2010   0.0533946    0.139428    0.960003  7.43391e-05
2020   0.0534118    0.139444      1.2011  3.83178e-05
2030   0.0526283    0.138732     1.05299  7.34493e-05
2040   0.0519428    0.138109     1.29409  5.48258e-05
2050   0.0515318    0.137735     1.29407  4.11697e-05
2060   0.0511194     0.13736     1.21959  3.62402e-05
2070    0.050807    0.137076     1.66518  -2.7176e-06
2080   0.0511738    0.137409     1.23788  -2.91545e-05
2090   0.0513901    0.137606     1.40496  -1.91232e-05
2100   0.0515562    0.137757    0.791992  1.11548e-05
2110    0.051167    0.137403     1.73912  9.34206e-05
2120   0.0496878    0.136059     1.38655  8.9795e-05
2130   0.0493711    0.135771     1.81349  2.15622e-05
2140   0.0492566    0.135666     2.03642  3.43356e-05
2150   0.0486844    0.135146     2.07327  3.94808e-05
2160    0.048467    0.134949     1.77619  4.59757e-05
2170   0.0477648     0.13431     1.68331  2.31085e-05
2180   0.0480048    0.134528      1.9057  5.64378e-05
2190   0.0466361    0.133284     1.53424  7.43786e-05
2200   0.0465172    0.133176     1.96124  7.46474e-05
2210   0.0451431    0.131927     2.79729  6.70666e-05
2220   0.0451759    0.131957     2.62982  4.42546e-06
2230   0.0450546    0.131846       2.258  6.35548e-05
2240   0.0439048    0.130801      2.3327  9.45443e-05
2250   0.0431637    0.130127      2.3882  9.4817e-05
2260   0.0420085    0.129077     2.59228  0.000118254
2270   0.0407987    0.127977       2.463  8.62529e-05
2280   0.0402834    0.127509      2.6853  1.4079e-05
2290   0.0405171    0.127721     2.42508  3.23022e-05
2300   0.0396374    0.126922       2.221  8.16043e-05
2310    0.038885    0.126238     1.73818  7.01301e-05
2320   0.0382348    0.125646     2.27667  5.47161e-05
2330   0.0377907    0.125243     1.86798  7.70075e-05
2340   0.0366946    0.124246     1.60803  9.80301e-05
2350   0.0358301     0.12346     1.73783  0.000137468
2360   0.0339452    0.121747    0.920868  0.000124681
2370   0.0333364    0.121193    0.920668  8.97635e-05
2380     0.03215    0.120115     1.12504  9.65083e-05
2390   0.0314063    0.119439     1.10632  1.67359e-05
2400   0.0318153     0.11981    0.678847  -3.17566e-05
2410   0.0320414    0.120016     1.14279  7.61226e-06
2420    0.031663    0.119672    0.697227  4.44841e-05
2430   0.0311517    0.119207      0.6973  4.46009e-05
2440    0.030771    0.118861    0.623019  1.12606e-06
2450   0.0311292    0.119187    0.919925  1.83709e-05
2460   0.0304036    0.118527      1.4027  5.41198e-05
2470   0.0300468    0.118203     1.29122  5.03028e-05
2480   0.0293975    0.117612     1.34696  0.000103542
2490    0.027976     0.11632    0.790069  6.78713e-05
2500   0.0280401    0.116378    0.975608  -6.43386e-06
2510   0.0281046    0.116437    0.733896  5.35507e-05
2520   0.0269691    0.115405    0.733805  8.29968e-05
2530   0.0264447    0.114928    0.492528  4.04752e-05
2540   0.0261596    0.114669      1.0496  1.91761e-05
2550   0.0260612    0.114579    0.956757  -2.09782e-05
2560   0.0265791     0.11505     1.01219  -3.57579e-05
2570   0.0267763    0.115229     0.95614  4.07526e-05
2580   0.0257641    0.114309    0.306445  0.000118847
2590   0.0243994    0.113068    0.492292  0.000124523
2600   0.0232736    0.112045    0.696937  6.27995e-05
2610   0.0231434    0.111927     0.45517  2.24965e-05
2620   0.0228237    0.111636    0.473731  4.01318e-05
2630   0.0223408    0.111197     1.04925  5.92059e-05
2640   0.0216396     0.11056     1.17933  3.35705e-05
2650   0.0216694    0.110587    0.937579  4.59433e-05
2660   0.0207207    0.109724    0.584772  9.22646e-05
2670   0.0198241    0.108909    0.510563  7.34343e-05
2680    0.019252    0.108389   -0.064887  5.86523e-05
2690    0.018651    0.107843      0.3063  7.11126e-05
2700   0.0178298    0.107096  -0.0833938  6.30807e-05
2710   0.0173894    0.106696    0.324843  1.66978e-05
2720   0.0174958    0.106792    0.176299  -5.16726e-06
2730   0.0174928     0.10679    0.194752  2.77826e-05
2740   0.0169402    0.106287  0.00906741  1.95707e-05
2750   0.0171013    0.106434    0.659125  3.48257e-05
2760   0.0162437    0.105654     0.25049  3.76035e-05
2770   0.0163493     0.10575    0.176046  3.24417e-06
2780   0.0161788    0.105595    0.659144  -1.33626e-05
2790   0.0166165    0.105993     0.32468  1.85016e-05
2800   0.0158088    0.105259     0.56612  3.78809e-05
2810   0.0158589    0.105304    0.529016  1.72137e-05
2820   0.0154645    0.104946    0.399178  3.39267e-05
2830   0.0151804    0.104687    0.324843  4.51659e-05
2840   0.0145612    0.104124    0.547613  -1.05221e-05
2850   0.0153908    0.104879    0.491476  -3.14033e-05
2860   0.0151892    0.104695    0.807234  4.25736e-05
2870   0.0145393    0.104105     1.30864  -1.61749e-05
2880   0.0155127    0.104989     1.01146  -3.85526e-05
2890   0.0153104    0.104806     1.04875   9.024e-06
2900   0.0153322    0.104825    0.825686  4.98557e-05
2910   0.0143133    0.103899     0.80756  8.5142e-05
2920   0.0136294    0.103277    0.770257  3.3212e-05
2930    0.013649    0.103295    0.918819  -2.45662e-05
2940   0.0141207    0.103724    0.547124  1.92531e-05
2950    0.013264    0.102945     0.62184  2.6291e-05
2960   0.0135949    0.103246    0.899859  -1.61089e-05
2970   0.0135862    0.103238     0.36144  4.49196e-05
2980   0.0126965    0.102429    0.380019  1.51021e-05
2990   0.0132841    0.102963    0.286886  -1.46711e-05
3000   0.0129899    0.102696    0.528127  3.2315e-05
3010   0.0126378    0.102376     0.47277  1.23948e-05
3020    0.012742    0.102471    0.491005  2.96335e-05
3030   0.0120451    0.101837    0.565485  -4.28595e-07
3040   0.0127506    0.102478    0.881098  -6.20399e-05
3050   0.0132859    0.102965    0.435394  1.68113e-05
3060   0.0124144    0.102173    0.249946  3.54711e-05
3070   0.0125765     0.10232     0.71392  5.37662e-06
3080   0.0123069    0.102075  -0.0474502  3.85587e-05
3090   0.0118053    0.101619    0.045283  2.70949e-05
3100    0.011765    0.101582     0.43514  3.00986e-05
3110   0.0112034    0.101072    0.528182  5.47963e-05
3120    0.010669    0.100586    0.583575  7.23809e-05
3130  0.00975576   0.0997558    0.249456  4.34838e-05
3140  0.00979936   0.0997954    0.212134  2.76617e-05
3150  0.00920252   0.0992528    0.249401  1.45747e-05
3160  0.00950786   0.0995304  -0.0481938  1.03008e-05
3170  0.00899651   0.0990655   0.0263773  4.09825e-05
3180  0.00868821   0.0987852    0.509221  2.94036e-05
3190  0.00840844   0.0985309    0.156305  1.33536e-05
3200  0.00842114   0.0985424    0.490189  4.60213e-06
3210  0.00831639   0.0984472    0.248821  -4.24675e-05
3220  0.00927049   0.0993146    0.304414  -2.48342e-05
3230  0.00881308   0.0988988    0.211753  4.43328e-05
3240  0.00838383   0.0985085    0.378913  -2.20309e-05
3250   0.0092537   0.0992993  -0.0854069  -1.60803e-05
3260  0.00870544   0.0988009    0.397564  -8.8146e-06
3270  0.00942999   0.0994596    0.248712  -3.24965e-05
3280  0.00935537   0.0993918   -0.215571  4.01785e-05
3290  0.00862642   0.0987291    -0.32692  2.83431e-05
3300  0.00878851   0.0988764    0.155943  1.35803e-05
3310  0.00835481   0.0984821   -0.122475  5.53872e-05
3320  0.00768076   0.0978694    -0.15947  6.0027e-05
3330  0.00715427   0.0973907   0.0817706  4.97266e-05
3340  0.00668623   0.0969652    0.007653  9.38748e-06
3350  0.00696652     0.09722   -0.215299  -3.55862e-05
3360  0.00739795   0.0976122    0.118639  7.9422e-06
3370  0.00680768   0.0970756    -0.12262  6.96596e-05
3380  0.00600476   0.0963457  -0.0853522  3.96733e-05
3390  0.00601421   0.0963543   -0.215607  2.62553e-05
3400  0.00547966   0.0958683   -0.326902  4.7486e-05
3410  0.00506449   0.0954909   -0.233932  4.61231e-05
3420   0.0045572   0.0950297   0.0817342  -8.05198e-07
3430   0.0050806   0.0955055  -0.0112529  -1.74555e-05
3440   0.0049063   0.0953471  -0.0670632  3.87743e-05
3450  0.00430511   0.0948005   -0.196792  -8.40975e-06
3460   0.0050745      0.0955   -0.196792  -6.0259e-05
3470  0.00551029   0.0958961   -0.605609  5.30491e-06
3480   0.0049684   0.0954035   -0.475554  5.42739e-05
3490  0.00442481   0.0949093   -0.438287  6.2114e-05
3500  0.00372612   0.0942741   -0.419852  5.30716e-05
3510  0.00336338   0.0939444   -0.419907  3.1711e-05
3520   0.0030919   0.0936976   -0.457174  4.87735e-05
3530  0.00238791   0.0930576   -0.308631  3.19089e-05
3540  0.00245372   0.0931174   0.0441949  -1.89651e-05
3550  0.00276721   0.0934024  -0.0486834  -5.06478e-06
3560  0.00255502   0.0932095   -0.345898  4.14165e-05
3570  0.00193888   0.0926493   -0.104512  6.01549e-05
3580  0.00135192   0.0921157   -0.382984  4.47831e-05
3590  0.00104322   0.0918351   -0.308667  9.10349e-06
3600  0.00116985   0.0919502   -0.494677  4.03838e-05
3610  0.000235545   0.0911008   -0.476189  9.16168e-06
3620  0.000986616   0.0917836   -0.234803  4.62796e-06
3630  0.000142986   0.0910167  -0.0489011  7.35139e-05
3640  -0.000483662    0.090447  -0.0304306  3.08066e-06
3650  8.13725e-05   0.0909606   -0.179355  -9.39812e-06
3660  -0.0002957   0.0906178    -0.12349  5.50991e-05
3670  -0.00102061   0.0899588   -0.476352  5.20861e-05
3680  -0.00133742   0.0896708   -0.271853  9.60751e-06
3690  -0.00121276   0.0897841   -0.179174  -2.51526e-05
3700  -0.000834369   0.0901281    0.322068  -1.56996e-05
