Time   C(t)   
ps   
0           1           1  1.67246e-09   0.0464743
10    0.539159    0.824313  -0.0496471   0.0242022
20    0.515956    0.815467     1.60277  0.00193011
30    0.500557    0.809596    0.558913   0.0017865
40    0.480226    0.801845     1.99737  0.00149839
50    0.470589    0.798171    0.953722  0.000848919
60    0.463248    0.795373    0.197887   0.0012309
70    0.445971    0.788786    0.882436  0.00104258
80    0.442396    0.787423     1.27535  0.000762044
90     0.43073    0.782976    0.700993  0.000893392
100    0.424528    0.780612     1.84964  0.000834966
110    0.414031     0.77661    0.772314  0.00064541
120     0.41162    0.775691    0.986171  0.000591134
130    0.402208    0.772102    0.806658  0.00086274
140    0.394365    0.769113     1.84907  0.000369199
150    0.394824    0.769287   -0.813204  0.000379752
160     0.38677    0.766217     -0.4894  0.000679813
170    0.381228    0.764104    -1.45934  0.000512561
180    0.376519    0.762309    -1.10003  0.000621559
190    0.368797    0.759365   -0.956653  0.00024219
200    0.371675    0.760462    0.227598  9.74908e-05
210    0.366847    0.758622   0.0119509  0.000365579
220    0.364364    0.757675    -1.35395  6.01619e-05
230    0.365644    0.758163     2.27486  0.000117113
240    0.362021    0.756782    -1.67976  0.000664766
250    0.352348    0.753094    -1.35441  0.000467314
260    0.352675    0.753219    -1.64348  -0.000146247
270    0.355273    0.754209   -0.171879  0.000222968
280    0.348216    0.751519   -0.026956  0.000625882
290    0.342756    0.749437   -0.816118  0.000446933
300    0.339277    0.748111    -1.06864  0.000186694
310    0.339022    0.748014   -0.961321  0.000310843
320     0.33306    0.745741    0.260749  0.000316001
330    0.332702    0.745604     1.15831  0.000178759
340    0.329485    0.744378     1.48075  0.000565322
350    0.321395    0.741294     2.41599  0.000184263
360      0.3258    0.742973   0.0773049  0.000304775
370      0.3153     0.73897     1.84132  0.000429025
380    0.317219    0.739702     1.33561  5.69731e-05
390     0.31416    0.738536     1.44307  0.000426063
400    0.308698    0.736453     1.47871  0.000566033
410     0.30284     0.73422     1.44402  0.000283667
420    0.303025    0.734291     2.05342  0.000303821
430    0.296763    0.731903    0.580517  0.000482285
440    0.293379    0.730613     1.44331  0.00028581
450    0.291047    0.729724     2.84451  0.000271998
460    0.287939    0.728539     2.41248  0.000156574
470    0.287916     0.72853     2.95105  0.000302157
480    0.281896    0.726236     2.77217  0.000316995
490    0.281576    0.726113     2.19547  0.000337341
500    0.275149    0.723663     1.98101  0.000318331
510    0.275209    0.723686     4.17305  0.000299922
520    0.269151    0.721377     2.84332  0.000305088
530    0.269107     0.72136     2.73439  4.81635e-05
540    0.268187    0.721009     1.54758  0.000301509
550    0.263077    0.719061      1.3694  8.73432e-05
560    0.266441    0.720343     1.69155  7.33584e-05
570     0.26161    0.718502    0.181531  0.000302751
580    0.260386    0.718035     1.76319  0.000151931
590    0.258571    0.717344    0.756344  0.000157113
600    0.257243    0.716837     2.15803  4.96626e-05
610    0.257578    0.716965     2.55256  6.94722e-05
620    0.255854    0.716307     2.51541  0.000241441
630    0.252749    0.715124     1.86955  0.000163211
640     0.25259    0.715063     1.90439  0.000340922
650    0.245931    0.712525     1.61784  -1.84491e-05
660    0.252959    0.715204      2.4416  0.00020426
670    0.241846    0.710967     2.04893  0.000514875
680    0.242661    0.711278     1.93993  5.68323e-05
690    0.240709    0.710534     1.32873  0.000343832
700    0.235784    0.708656     2.58743  0.000190783
710    0.236893    0.709079     3.12562  -0.000155628
720    0.238897    0.709843     2.26159  -2.68213e-05
730     0.23743    0.709284     2.22595  -4.6967e-05
740    0.239836    0.710201     2.26099  0.000122342
750    0.234983    0.708351     1.79353  0.000256715
760    0.234702    0.708244     2.04559  1.81518e-05
770     0.23462    0.708212     2.79894  0.000172975
780    0.231243    0.706925     2.58392  0.000188133
790    0.230857    0.706778     2.04401  0.00023875
800    0.226468    0.705104     2.00777  0.000379337
810    0.223271    0.703886     1.64815  0.000219738
820    0.222073    0.703429      1.0377  0.000225359
830    0.218763    0.702167    0.355111  0.000306159
840     0.21595    0.701095     2.18676  0.000276672
850     0.21323    0.700058     2.58248  0.000317557
860    0.209598    0.698673     2.33112  0.000161906
870    0.209992    0.698823     1.53908  0.000187694
880    0.205845    0.697242     1.25239  0.000117096
890     0.20765    0.697931    0.460215  0.00019359
900    0.201973    0.695766     1.79013  0.000436678
910    0.198916    0.694601     1.03541  0.000275554
920    0.196462    0.693665     1.28737  0.000139165
930    0.196133     0.69354    0.854743  8.87901e-05
940    0.194686    0.692988   -0.223984  0.000119426
950    0.193745    0.692629    0.710382  0.000206284
960     0.19056    0.691415    0.280106  0.000155652
970    0.190631    0.691443     0.92645  -0.000206199
980    0.194684    0.692988      1.1763  -1.73777e-05
990    0.190979    0.691575     0.99742  0.000191908
1000    0.190846    0.691524     1.35571  -8.91186e-05
1010    0.192761    0.692255    0.923747  0.000249109
1020    0.185864    0.689625     1.57255  0.00034667
1030    0.185828    0.689611     2.07513  0.000101235
1040    0.183839    0.688853    0.349391  -8.89622e-05
1050    0.187607     0.69029    -0.65791  3.98763e-05
1060    0.183042    0.688549   -0.765119  3.95484e-05
1070    0.186816    0.689988      1.1749  -3.73431e-05
1080    0.183788    0.688834     1.17437  0.000143034
1090    0.183956    0.688898     1.75031  0.000102173
1100    0.181745    0.688055     1.24741  2.9698e-05
1110    0.183362    0.688671    0.383735  3.52092e-05
1120    0.181041    0.687786    0.311887  0.000263446
1130    0.178093    0.686662    0.958969  0.000128908
1140    0.178463    0.686803    0.382822  0.000113766
1150    0.175817    0.685795    0.599032  0.000108653
1160     0.17629    0.685975     1.13753  0.000270653
1170    0.170404    0.683731    0.131884  0.000302235
1180    0.170245    0.683671   -0.479275  0.00025107
1190    0.165383    0.681817    0.600013  0.000146693
1200    0.167311    0.682552    0.886139  -0.000245395
1210    0.170291    0.683688  -0.0860102  0.00016311
1220    0.164049    0.681308     1.46113  0.000336162
1230    0.163568    0.681125    0.634955  -0.000119919
1240    0.166447    0.682223    0.417166  6.94029e-05
1250     0.16218    0.680596     1.60356  0.000200781
1260    0.162432    0.680692    0.775665  0.000270051
1270    0.156779    0.678537    0.166368  5.39087e-05
1280    0.161353    0.680281    0.990962  -0.000146216
1290    0.159703    0.679652    0.954792  0.000355761
1300    0.154238    0.677568      1.3154  0.00023456
1310    0.155012    0.677863    0.883401  6.04197e-05
1320     0.15303    0.677108    0.954757  0.000495746
1330    0.145097    0.674083   -0.660437  2.87838e-05
1340    0.152454    0.676888    0.558333  -0.000167143
1350     0.14844    0.675358     1.38675  -8.39606e-06
1360    0.152622    0.676952   -0.447773  -7.95051e-06
1370    0.148599    0.675418     1.17075  0.000253283
1380    0.147556    0.675021   -0.339476  2.9479e-05
1390    0.148009    0.675194  -0.0883972  2.4312e-05
1400     0.14707    0.674836    -0.48461  0.000152893
1410    0.144951    0.674028   -0.232547  5.65738e-05
1420    0.145939    0.674404    0.378014  0.000261014
1430    0.139731    0.672038     0.16363  0.000105238
1440    0.143834    0.673602     1.31189  3.61085e-05
1450    0.139009    0.671762    0.126232  0.000439937
1460    0.135035    0.670247    0.846564  7.94478e-05
1470     0.13742    0.671157     1.02485  -1.72138e-05
1480    0.135379    0.670379    0.736863  0.000279994
1490     0.13182    0.669022    0.953388  0.000242589
1500    0.130528    0.668529    0.270804  9.1479e-05
1510     0.12999    0.668324     1.20352  5.9209e-05
1520    0.129343    0.668078    0.843652  -3.85001e-05
1530     0.13076    0.668618  -0.0196734  0.000402305
1540    0.121297     0.66501     1.13181  0.000293628
1550    0.124888    0.666379     1.09438  -0.000163047
1560    0.124558    0.666253    0.626776  0.000437006
1570    0.116148    0.663047    0.556298  0.000257137
1580    0.119416    0.664293     1.41738  -0.000146576
1590    0.119079    0.664165     1.66881  1.72529e-05
1600    0.119071    0.664161     1.66863  0.000116057
1610    0.116758     0.66328     1.66807  0.000401844
1620    0.111034    0.661097    0.842459  0.000606135
1630    0.104635    0.658658   -0.306536  0.000370746
1640    0.103619    0.658271     1.31045  -0.000267565
1650    0.109987    0.660698     1.16366  -2.79881e-06
1660    0.103675    0.658292    0.122793  0.00035562
1670    0.102874    0.657987   -0.524149  -0.000102431
1680    0.105723    0.659073   -0.957057  0.000130214
1690     0.10027    0.656994    -1.02743  0.000446184
1700   0.0967996    0.655671   -0.667317  -0.000213453
1710    0.104539    0.658621    0.193447  -0.0002967
1720    0.102734    0.657933    -1.06486  0.000364438
1730   0.0972502    0.655843   -0.632305  0.00015333
1740    0.099667    0.656764   -0.238373  -0.000124804
1750   0.0997463    0.656794   0.0842714  7.02467e-05
1760   0.0982621    0.656228    -1.42473  0.000445089
1770   0.0908445    0.653401    -1.49616  0.000210592
1780   0.0940503    0.654623   -0.166317  -3.49436e-05
1790   0.0915434    0.653667   -0.489347  0.000127447
1800   0.0915013    0.653651   -0.813256  0.000116612
1810   0.0892112    0.652778   -0.956671  -9.14399e-05
1820   0.0933301    0.654348   -0.958075  -0.000130675
1830   0.0918247    0.653774    -1.24599  0.00017328
1840   0.0898645    0.653027    -1.56927  1.55173e-05
1850   0.0915143    0.653656   -0.922397  6.66589e-05
1860   0.0885314    0.652519    -1.31801  0.000434583
1870   0.0828227    0.650342    -1.13745  0.00029946
1880   0.0825422    0.650235    -1.78505  -0.000193292
1890   0.0866885    0.651816    -1.92998  0.000300875
1900   0.0765247    0.647941    -2.61119  0.000272287
1910   0.0812428     0.64974    -1.35408  -0.000244527
1920   0.0814152    0.649806    -1.71482  0.000176696
1930   0.0777088    0.648393   -0.995017  0.000274007
1940   0.0759351    0.647717    -1.21112  0.000246184
1950   0.0727852    0.646516    -1.64213  0.000378408
1960   0.0683669    0.644831    -2.21716  0.000367815
1970   0.0654289    0.643711    -2.28855  -3.87117e-05
1980   0.0691412    0.645127    -1.82291  2.48436e-05
1990    0.064932    0.643522    -3.29564  -0.000165494
2000    0.072451    0.646388    -1.28542  -0.000119066
2010   0.0673133     0.64443    -3.44056  0.000324014
2020   0.0659708    0.643918    -1.67953  1.31175e-05
2030    0.067051     0.64433    -3.87347  0.000100086
2040    0.063969    0.643155    -3.22656  0.00014065
2050    0.064238    0.643257    -2.14847  0.00014699
2060   0.0610292    0.642034    -1.64491  0.000129722
2070   0.0616435    0.642268    -3.58587  -9.63882e-05
2080    0.062957    0.642769    -2.22035  -1.51187e-05
2090   0.0619459    0.642384    -3.51395  -7.94008e-05
2100    0.064545    0.643374    -2.83133  8.14572e-06
2110    0.061783    0.642321    -3.15486  0.000334951
2120    0.057846    0.640821    -3.40579  0.000224616
2130   0.0572907    0.640609    -2.83119  6.72685e-05
2140   0.0565006    0.640308    -3.40583  0.000131902
2150   0.0546526    0.639603    -3.33384  0.000190908
2160   0.0526825    0.638852    -2.21958  -0.000261311
2170   0.0598788    0.641595     -2.8327  -5.53861e-05
2180   0.0537902    0.639274    -3.91013  0.000214798
2190   0.0555829    0.639958     -3.9831  -5.5597e-05
2200   0.0549021    0.639698    -2.50953  0.000144965
2210   0.0526836    0.638852    -2.76047  -2.04347e-05
2220   0.0553108    0.639854    -3.98289  0.000181269
2230   0.0490582     0.63747    -2.72402  -3.23951e-05
2240   0.0559587    0.640101     -2.7985  -7.91196e-05
2250   0.0506406    0.638074    -3.01288  0.000597927
2260   0.0440002    0.635542    -2.36475  0.000200312
2270   0.0466343    0.636546    -2.32949  -0.000174249
2280   0.0474852    0.636871    -2.15096  0.000111851
2290   0.0443973    0.635693    -1.97162  9.39256e-05
2300   0.0456067    0.636154    -1.93598  0.000274014
2310    0.038917    0.633604    -2.54577  0.000166346
2320   0.0422798    0.634886    -2.36703  0.000149437
2330   0.0359283    0.632465    -3.73128  -3.71402e-05
2340   0.0430226    0.635169    -2.90641  -7.84708e-05
2350   0.0374977    0.633063     -1.9357  0.000318229
2360    0.036658    0.632743    -3.26519  0.000168488
2370    0.034128    0.631778    -2.51048  -4.26438e-05
2380   0.0375108    0.633068    -3.44583  -6.04831e-05
2390   0.0353376     0.63224    -3.55332  0.000259998
2400   0.0323109    0.631086    -3.08575  0.000236374
2410   0.0306101    0.630437    -1.54019  1.24061e-05
2420   0.0320628    0.630991    -2.40278  -7.25139e-05
2430   0.0320604     0.63099    -2.83449  -0.000115415
2440   0.0343711    0.631871    -3.41029  -0.000164352
2450   0.0353475    0.632243     -2.5123  -0.000171013
2460   0.0377913    0.633175    -2.04589  0.000140462
2470   0.0325382    0.631172    -1.68469  9.74435e-05
2480   0.0358425    0.632432   -0.931346  -0.000294027
2490   0.0384188    0.633414    -3.15984  0.000122553
2500   0.0333914    0.631498     -2.5484  0.000196091
2510   0.0344969    0.631919    -2.22509  -0.000209154
2520   0.0375745    0.633092    -2.58492  -0.000166455
2530    0.037826    0.633188    -1.50693  1.80269e-05
2540   0.0372139    0.632955    -1.57878  0.00011694
2550   0.0354872    0.632297    -2.47691  0.000346098
2560    0.030292    0.630316    -1.32563  4.31674e-05
2570   0.0346239    0.631967    -2.15352  -6.15148e-05
2580   0.0315223    0.630785    -1.93703  0.000310576
2590   0.0284124    0.629599    -1.14612  -4.94448e-05
2600   0.0325112    0.631162    -2.08174  -4.90853e-05
2610   0.0293941    0.629974    -2.83635  0.000174906
2620   0.0290131    0.629828    -2.26122  3.81409e-05
2630   0.0286313    0.629683    -3.37636  0.000125774
2640   0.0264976    0.628869    -1.93773  -1.80659e-05
2650   0.0289926    0.629821    -2.08203  -1.15071e-05
2660   0.0267277    0.628957    -1.54391  -9.34957e-05
2670   0.0308625    0.630534    -1.61579  -0.000105886
2680   0.0288455    0.629765    -1.50781  6.34223e-05
2690    0.029594     0.63005    -0.42982  0.000164665
2700   0.0255522    0.628509    -1.57976  0.000373201
2710     0.02213    0.627204    -1.36331  5.17744e-05
2720   0.0245167    0.628114    -1.58018  -0.000283294
2730   0.0277959    0.629364    -1.61656  1.31335e-06
2740   0.0244904    0.628104    -2.90953  1.35553e-05
2750   0.0275248    0.629261    -2.40759  0.000217503
2760   0.0201403    0.626446    -2.47824  0.000115525
2770   0.0252143     0.62838    -2.29999  2.10756e-05
2780   0.0197188    0.626285    -4.70698  0.000365165
2790    0.017911    0.625596    -3.37696  -8.1113e-05
2800   0.0213411    0.626904    -4.16893  1.50562e-05
2810   0.0176099    0.625481    -4.02425  7.22949e-05
2820   0.0198952    0.626352    -4.06123  5.36663e-05
2830   0.0165365    0.625072     -3.8084  0.000111311
2840    0.017669    0.625504    -3.09059  0.000150523
2850   0.0135261    0.623924    -3.41362  2.16151e-05
2860   0.0172367    0.625339    -2.37236  -0.000106863
2870   0.0156633    0.624739    -3.80991  0.000338586
2880    0.010465    0.622757    -3.48522  -0.000113938
2890   0.0179421    0.625608    -2.98408  6.81675e-05
2900   0.0091016    0.622238    -3.16177  0.000346395
2910   0.0110142    0.622967    -3.88203  -0.000334568
2920    0.015793    0.624789    -3.55963  0.000218136
2930  0.00665148    0.621303    -3.23443  0.000315579
2940  0.00948137    0.622382    -3.66667  0.000167143
2950  0.00330862    0.620029    -2.83881  0.000219269
2960  0.00509598     0.62071    -2.51662  -0.000146239
2970  0.00623341    0.621144     -1.7264  5.00546e-05
2980  0.00409489    0.620329    -2.66042  8.28015e-05
2990  0.00457738    0.620513    -3.55939  8.3208e-05
3000  0.00243073    0.619694    -1.61856  -9.45511e-05
3010   0.0064684    0.621234    -3.38075  -0.000193331
3020  0.00629736    0.621168    -2.48259  -0.000167761
3030  0.00982362    0.622513    -1.22502  0.000215658
3040   0.0019842    0.619524    -1.86992  0.000255198
3050  0.00471966    0.620567    -1.22368  -0.000121388
3060  0.00441197     0.62045    -2.23018  0.00019022
3070  0.000915257    0.619117    -1.04329  -4.22841e-05
3080  0.00525765    0.620772    -2.37387  -0.000274976
3090  0.00641477    0.621213    -1.72784  0.000197662
3100  0.00130441    0.619265    -1.29574  0.000378149
3110  -0.00114821     0.61833     -1.6553  -2.86741e-05
3120  0.00187789    0.619484    -2.01548  -0.000135553
3130  0.00156285    0.619364    -1.76366  4.49577e-05
3140  0.000978734    0.619141    -2.12409  0.000266846
3150  -0.00377407    0.617329    -2.33872  3.17698e-05
3160  0.000343339    0.618899    -1.65747  0.00012009
3170  -0.00617588    0.616413    -2.05158  8.59285e-05
3180  -0.00137523    0.618243    -2.66386  -0.000352344
3190  0.000871011      0.6191    -1.91027  -4.21356e-05
3200  -0.000532519    0.618565    -2.34111  0.00035748
3210  -0.0062786    0.616374    -1.80138  0.000426062
3220  -0.00905376    0.615316    -1.40516  -8.24498e-05
3230  -0.0046296    0.617003    -2.73571  -0.000231941
3240  -0.00441494    0.617085    -2.01776  0.000148944
3250  -0.00760849    0.615867   -0.687744  0.000190103
3260  -0.00821699    0.615635    -1.47803  -0.000103228
3270  -0.00554392    0.616654    -1.51546  -0.000192346
3280  -0.00437006    0.617102    -1.65944  5.39398e-05
3290  -0.00662272    0.616243    -1.30006  2.63445e-05
3300  -0.00489695    0.616901    0.101523  0.000315743
3310  -0.0129376    0.613836  -0.0409428  0.000322842
3320  -0.0113538    0.614439   -0.329175  -0.000137883
3330  -0.0101799    0.614887   -0.833333  2.75797e-05
3340  -0.0119054    0.614229   -0.113526  -1.41182e-05
3350  -0.00989757    0.614994   -0.186708  0.000256472
3360  -0.0170348    0.612274    0.605086  7.60786e-05
3370  -0.0114191    0.614414    0.136218  -6.14449e-06
3380  -0.0169119     0.61232    -1.69483  0.000118316
3390  -0.0137855    0.613512    -1.04842  -0.000515383
3400  -0.00660427     0.61625   -0.583482  -0.000167331
3410  -0.0104388    0.614788   -0.582817  0.000397966
3420  -0.0145636    0.613216    -0.40211  -0.000266494
3430  -0.00510896     0.61682    -1.73385  -0.000280268
3440  -0.00895823    0.615353    -1.40895  6.22184e-05
3450  -0.00635333    0.616346   -0.655646  -0.000267909
3460  -0.00360005    0.617395    -1.30224  2.02782e-05
3470  -0.00675889    0.616191   -0.259925  0.000394089
3480  -0.0114818     0.61439  -0.0428728  -2.90493e-05
3490  -0.00617791    0.616413    -1.23095  -0.000262116
3500  -0.00623951    0.616389    -1.73413  0.000133849
3510  -0.00885489    0.615392    -1.19478  0.000233559
3520  -0.0109107    0.614608    -1.69855  -0.000149882
3530  -0.00585724    0.616535    -1.26754  -5.0039e-05
3540  -0.00990992     0.61499   -0.800148  0.000220309
3550  -0.0102634    0.614855    -1.51869  -0.000121834
3560  -0.00747325    0.615919    -2.16598  -0.000136272
3570  -0.00753797    0.615894    -1.08789  6.38522e-05
3580  -0.00875029    0.615432    -2.20219  0.000214767
3590  -0.0118333    0.614257    -1.08712  5.70511e-05
3600  -0.00989131    0.614997     0.34983  -0.000108075
3610  -0.0096718    0.615081  -0.0457507  0.000331558
3620  -0.0165225    0.612469   0.0996269  -1.47904e-05
3630  -0.00937599    0.615193   -0.440175  -0.000382871
3640  -0.00886505    0.615388    -1.37514  -0.000181644
3650  -0.00574311    0.616578   -0.405865  7.93932e-05
3660  -0.0104529    0.614783    -1.23214  0.000180847
3670  -0.00936005    0.615199    -0.90827  5.80674e-05
3680  -0.0116143     0.61434   -0.728406  -2.22951e-05
3690  -0.00891414    0.615369    -1.87926  -0.00023388
3700  -0.00693666    0.616123    -2.41878  -6.63382e-05
3710  -0.00758738    0.615875    -1.19668  0.000182442
3720  -0.0105855    0.614732    -2.49024  -6.67681e-05
3730  -0.00625202    0.616384    -2.38303  -0.000272287
3740  -0.00513976    0.616808    -1.87979  -5.98497e-05
3750  -0.00505502    0.616841    -1.55626  -7.48669e-05
3760  -0.00364242    0.617379    -2.59907  -3.8008e-05
3770  -0.00429486     0.61713     -1.7724  -1.31332e-06
3780  -0.00361616    0.617389    -1.52076  -0.000186569
3790  -0.000563476    0.618553    -2.67074  -0.000320614
3800  0.00279612    0.619834     -2.2038  -0.000210084
3810   0.0036382    0.620155    -1.77251  -6.93869e-05
3820  0.00418385    0.620363    -1.66551  0.000228814
3830  -0.000938084     0.61841    -2.13101  -0.00015956
3840  0.00737506    0.621579     -2.8157  -0.000188907
3850  0.00284005     0.61985    -2.99426  0.000184294
3860  0.00368917    0.620174    -2.49165  0.000170278
3870  -0.000565508    0.618552    -2.95806  0.000102767
3880  0.00163383    0.619391    -2.20327  -0.000212773
3890  0.00368995    0.620174    -2.67239  6.56893e-05
3900  0.000320043     0.61889    -2.59959  0.000435834
3910  -0.00502672    0.616851    -1.84393  -0.000130722
3920  0.00293448    0.619886    -2.95988  -0.000418206
3930  0.00333739     0.62004    -2.59973  -0.000101196
3940   0.0049584    0.620658     -2.6719  0.000210506
3950  -0.000872731    0.618435    -1.62895  -1.80503e-05
3960   0.0053194    0.620796     -3.2118  -0.000223241
3970  0.00359208    0.620137    -3.06814  8.12537e-05
3980  0.00369433    0.620176    -3.35504  6.63616e-05
3990  0.00226485    0.619631    -3.49881  0.000235256
4000  -0.00101079    0.618382    -3.17507  -1.00453e-05
4010  0.00246575    0.619708    -5.04447  -0.000355917
4020  0.00610755    0.621096    -3.93172  -7.17869e-05
4030  0.00390149    0.620255    -3.89541  0.000282739
4040  0.000452782     0.61894    -4.21809  2.82754e-05
4050  0.00333598     0.62004    -4.07429  -6.40868e-05
4060  0.00173452    0.619429    -3.85924  4.39805e-05
4070  0.00245637    0.619704    -4.50607  -0.000118926
4080  0.00411303    0.620336    -5.04538   -8.03e-05
4090  0.00406237    0.620316    -5.33246  1.28987e-05
4100  0.00385506    0.620237    -5.08099  -0.000299726
4110   0.0100569    0.622602    -4.75919  -0.000198413
4120  0.00782331     0.62175    -5.26138  1.19606e-05
4130  0.00981767    0.622511    -3.96753  -0.000168331
4140   0.0111899    0.623034     -4.5073  -0.0001375
4150   0.0125677    0.623559    -4.11239  0.000200985
4160  0.00717024    0.621501     -5.1895  -1.20544e-05
4170   0.0128088    0.623651     -4.9755  -2.70168e-05
4180  0.00771058    0.621707    -5.08275  0.000154174
4190  0.00972527    0.622475    -4.65124  -0.000114485
4200   0.0100003     0.62258     -5.0831  -5.93651e-05
4210   0.0109126    0.622928    -5.29885  2.80722e-05
4220  0.00943884    0.622366    -4.65166  0.000147623
4230  0.00796011    0.621802    -4.75968  0.000347928
4240  0.00248029    0.619713    -4.93874  0.000156652
4250  0.00482707    0.620608    -5.33382  -0.000323287
4260  0.00894604    0.622178    -5.15529  -3.50687e-05
4270  0.00552844    0.620875    -5.80192  3.65775e-05
4280  0.00821449    0.621899    -5.87517  0.00039201
4290  -0.00231175    0.617886    -6.16168  0.000432574
4300  -0.000436991    0.618601    -4.79658  0.000176282
4310  -0.00583738    0.616542    -5.62227  7.0927e-05
4320  -0.00185553     0.61806    -3.96901  -4.97732e-05
4330  -0.00484192    0.616922    -4.50835  0.000169019
4340  -0.00523592    0.616772     -5.5507  -0.000172365
4350  -0.00139462    0.618236    -5.08394  -0.000352149
4360  0.00180706    0.619457    -4.72505  -0.000140838
4370  0.00142214     0.61931    -5.40841  -0.000108904
4380  0.00398514    0.620287    -4.72628  0.000120685
4390  -0.000991555     0.61839    -5.69541  0.000383528
4400  -0.00368542    0.617363     -6.1265  -3.48889e-05
4410  -0.000293777    0.618656    -6.27033  -0.000455237
4420  0.00541931    0.620834    -6.59498  -6.82143e-05
4430  0.00107051    0.619176    -7.06142  0.000129346
4440  0.00283239    0.619848    -7.52934  6.40399e-05
4450  -0.000210287    0.618688    -6.73853  0.000213375
4460  -0.00143511    0.618221    -6.95418  6.23826e-06
4470  -0.000335052     0.61864    -7.27749  -0.000110287
4480  0.000770636    0.619062     -6.3433  0.000164954
4490  -0.00363414    0.617382    -6.41497  0.000232019
4500  -0.00386975    0.617292    -6.84672  0.000141033
4510  -0.0064548    0.616307    -6.63111  0.000586576
4520  -0.0156013     0.61282    -7.16884  -1.78236e-05
4530  -0.00609833    0.616443    -7.13481  -0.000640094
4540  -0.0027994    0.617701    -7.42308  -9.40038e-05
4550  -0.00421825     0.61716    -7.35141  0.000429916
4560  -0.0113977    0.614423    -9.29129  7.09035e-06
4570  -0.00436006    0.617106    -7.74773  -0.000246411
4580  -0.0064695    0.616301    -7.81933  0.00040705
4590  -0.0125011    0.614002    -7.49444  0.000391134
4600  -0.0142922    0.613319    -8.06974  1.71904e-05
4610  -0.0128449    0.613871    -7.96295  -0.000145004
4620  -0.0113921    0.614425    -9.11293  0.000145903
4630  -0.0157629    0.612758    -8.10612   0.0002919
4640  -0.0172301    0.612199    -8.68079  0.000129776
4650  -0.0183585    0.611769     -9.3644  -0.000326617
4660  -0.0106978    0.614689    -8.71847  -0.000214704
4670  -0.0140644    0.613406    -8.25094  0.000216119
4680  -0.0150201    0.613042    -8.86213  5.24233e-05
4690  -0.0151128    0.613006    -8.96945  -0.000181793
4700  -0.0113843    0.614428    -8.86308  0.000165924
4710  -0.0184313    0.611741    -8.75359  0.000366079
4720  -0.0187059    0.611636    -8.89827  -0.000287007
4730  -0.0126912    0.613929    -8.57566  -0.000182504
4740  -0.0150558    0.613028     -8.6114  0.000149234
4750  -0.0156759    0.612792    -8.86298  0.000211452
4760  -0.0192848    0.611416    -8.50314  2.7095e-05
4770  -0.0162178    0.612585     -8.7197  0.000160131
4780  -0.0224874    0.610195    -8.14436  0.00037195
4790  -0.0236568    0.609749    -7.67729  0.000311897
4800  -0.0287254    0.607817     -8.3238  0.000135303
4810  -0.0263628    0.608717    -8.25234  1.21325e-05
4820   -0.028968    0.607724    -9.07859  -0.000193112
4830  -0.0225006     0.61019    -8.39706  -0.000478431
4840  -0.0193994    0.611372    -8.75685  -0.000158825
4850  -0.0193241    0.611401      -9.763  -2.54299e-05
4860  -0.0188908    0.611566    -8.50581  0.000162984
4870  -0.0225837    0.610158    -9.29532  0.000343018
4880  -0.0257512    0.608951    -8.82856  0.000236319
4890  -0.0273101    0.608356    -8.18186  -0.000132676
4900  -0.0230977    0.609962    -8.28999  -0.000105534
4910  -0.0251994    0.609161    -8.93717  -0.000251524
4920  -0.0180672     0.61188    -8.83014  -6.44941e-06
4930  -0.0250704     0.60921    -8.43368   0.0003924
4940  -0.0259152    0.608888    -8.72107  0.000121122
4950  -0.0274929    0.608287    -9.15243  -0.000189032
4960  -0.0221346    0.610329    -8.68606  -0.000298952
4970  -0.0215139    0.610566    -8.29157  0.000249632
4980  -0.0271272    0.608426    -8.79327  0.000360302
4990  -0.0287199    0.607819    -9.29683  0.000470973
