Time   Number   
ps   
0          30          31
10          27          31
20          26          36
30          29          33
40          29          32
50          28          30
60          30          33
70          25          32
80          30          26
90          25          35
100          29          29
110          33          34
120          32          26
130          27          30
140          33          30
150          30          32
160          34          22
170          31          32
180          28          26
190          29          29
200          26          33
210          28          31
220          31          27
230          32          27
240          29          34
250          32          29
260          29          26
270          28          28
280          26          32
290          30          27
300          31          29
310          30          21
320          30          27
330          31          22
340          29          29
350          29          22
360          26          27
370          31          33
380          29          25
390          27          28
400          29          31
410          31          30
420          30          27
430          27          37
440          30          30
450          29          30
460          31          24
470          32          24
480          29          26
490          30          29
500          29          27
510          27          34
520          31          24
530          28          23
540          30          29
550          33          28
560          31          24
570          31          21
580          30          27
590          28          27
600          29          31
610          30          29
620          31          26
630          30          30
640          31          26
650          33          26
660          27          42
670          31          26
680          30          26
690          32          22
700          31          24
710          28          27
720          34          22
730          32          20
740          30          26
750          32          25
760          33          25
770          32          16
780          28          26
790          31          25
800          38          21
810          28          22
820          32          24
830          28          23
840          32          27
850          31          25
860          34          25
870          34          20
880          30          27
890          29          24
900          28          25
910          30          24
920          32          23
930          33          24
940          31          28
950          29          23
960          30          29
970          30          27
980          32          27
990          30          26
1000          28          29
1010          32          26
1020          26          32
1030          33          19
1040          33          22
1050          32          30
1060          31          30
1070          32          19
1080          28          21
1090          33          25
1100          35          23
1110          31          34
1120          32          20
1130          32          27
1140          31          25
1150          31          23
1160          32          22
1170          31          23
1180          30          20
1190          34          21
1200          28          24
1210          28          30
1220          28          28
1230          31          26
1240          30          26
1250          26          31
1260          33          23
1270          33          23
1280          32          23
1290          29          29
1300          28          26
1310          28          31
1320          25          32
1330          28          25
1340          32          23
1350          31          27
1360          31          25
1370          30          22
1380          27          30
1390          26          33
1400          32          30
1410          33          24
1420          31          28
1430          30          27
1440          31          28
1450          28          33
1460          34          22
1470          26          26
1480          33          25
1490          30          24
1500          31          31
1510          28          32
1520          29          27
1530          28          30
1540          32          30
1550          31          27
1560          30          31
1570          30          30
1580          31          22
1590          31          30
1600          32          26
1610          31          26
1620          32          27
1630          30          29
1640          29          28
1650          30          29
1660          28          26
1670          25          28
1680          31          26
1690          30          29
1700          30          27
1710          28          24
1720          32          24
1730          29          27
1740          34          24
1750          31          21
1760          29          31
1770          31          28
1780          29          30
1790          28          31
1800          30          26
1810          35          27
1820          33          26
1830          29          28
1840          30          31
1850          32          26
1860          30          22
1870          31          24
1880          29          38
1890          32          24
1900          29          31
1910          30          29
1920          29          25
1930          31          27
1940          30          27
1950          26          32
1960          30          26
1970          33          24
1980          30          25
1990          32          28
2000          30          23
2010          32          22
2020          30          30
2030          26          29
2040          32          26
2050          34          29
2060          28          28
2070          29          32
2080          31          22
2090          34          22
2100          30          24
2110          30          24
2120          29          27
2130          29          26
2140          26          24
2150          26          28
2160          29          23
2170          31          19
2180          25          24
2190          28          27
2200          29          27
2210          28          21
2220          27          28
2230          28          27
2240          27          31
2250          27          31
2260          31          27
2270          29          25
2280          28          31
2290          32          26
2300          31          18
2310          33          22
2320          26          32
2330          29          28
2340          26          33
2350          30          29
2360          27          29
2370          28          28
2380          31          29
2390          28          33
2400          30          29
2410          26          33
2420          27          31
2430          34          24
2440          27          25
2450          28          29
2460          28          30
2470          29          23
2480          31          24
2490          29          33
2500          30          32
2510          28          30
2520          25          29
2530          25          31
2540          30          22
2550          32          21
2560          26          26
2570          27          25
2580          25          28
2590          24          35
2600          24          31
2610          25          29
2620          27          24
2630          27          21
2640          25          26
2650          27          25
2660          25          26
2670          27          21
2680          25          25
2690          27          25
2700          30          22
2710          31          29
2720          29          25
2730          28          23
2740          29          26
2750          29          20
2760          31          19
2770          29          26
2780          32          20
2790          31          24
2800          30          24
2810          28          29
2820          29          29
2830          24          29
2840          26          26
2850          31          20
2860          30          20
2870          27          25
2880          28          24
2890          27          28
2900          30          21
2910          28          25
2920          28          20
2930          27          24
2940          30          25
2950          30          23
2960          26          27
2970          31          22
2980          26          24
2990          23          24
3000          24          28
3010          26          28
3020          32          20
3030          30          20
3040          28          22
3050          25          26
3060          30          22
3070          34          19
3080          32          21
3090          29          22
3100          30          20
3110          26          22
3120          31          15
3130          32          18
3140          30          19
3150          30          18
3160          31          27
3170          27          28
3180          27          25
3190          32          24
3200          28          23
3210          26          24
3220          25          25
3230          27          23
3240          28          25
3250          27          25
3260          31          20
3270          27          29
3280          28          21
3290          23          25
3300          29          25
3310          29          23
3320          29          29
3330          28          22
3340          29          26
3350          28          23
3360          26          25
3370          27          23
3380          29          24
3390          32          25
3400          28          26
3410          27          23
3420          31          23
3430          33          21
3440          29          28
3450          32          21
3460          27          23
3470          30          19
3480          29          20
3490          32          24
3500          31          21
3510          29          27
3520          35          25
3530          28          29
3540          31          18
3550          28          20
3560          27          25
3570          30          21
3580          28          17
3590          28          25
3600          29          24
3610          28          20
3620          27          23
3630          30          19
3640          28          26
3650          34          18
3660          32          24
3670          29          23
3680          31          21
3690          31          21
3700          30          21
3710          34          23
3720          27          30
3730          32          25
3740          27          25
3750          32          20
3760          29          28
3770          31          16
3780          30          22
3790          33          20
3800          26          29
3810          26          29
3820          29          22
3830          29          26
3840          32          23
3850          33          22
3860          30          22
3870          26          26
3880          29          25
3890          27          25
3900          29          27
3910          25          27
3920          28          26
3930          27          24
3940          29          21
3950          29          22
3960          29          23
3970          28          21
3980          28          23
3990          30          17
4000          26          24
4010          30          18
4020          31          18
4030          27          27
4040          29          23
4050          31          20
4060          25          26
4070          26          29
4080          25          29
4090          27          22
4100          25          22
4110          26          28
4120          24          23
4130          27          20
4140          26          25
4150          27          26
4160          29          21
4170          31          19
4180          24          31
4190          30          26
4200          30          28
4210          31          21
4220          34          22
4230          32          24
4240          29          29
4250          29          24
4260          27          24
4270          27          28
4280          31          19
4290          26          24
4300          26          26
4310          29          20
4320          30          18
4330          29          22
4340          26          24
4350          30          22
4360          31          18
4370          27          24
4380          26          25
4390          28          22
4400          29          17
4410          30          18
4420          30          23
4430          29          22
4440          26          24
4450          25          26
4460          25          21
4470          27          22
4480          26          23
4490          29          21
4500          27          21
4510          28          21
4520          32          19
4530          29          21
4540          32          20
4550          27          24
4560          29          25
4570          29          23
4580          28          22
4590          31          24
4600          27          21
4610          29          19
4620          30          20
4630          30          19
4640          29          17
4650          25          27
4660          29          18
4670          30          15
4680          28          18
4690          27          20
4700          28          20
4710          27          21
4720          28          23
4730          27          25
4740          27          18
4750          26          19
4760          27          22
4770          29          22
4780          26          18
4790          26          20
4800          28          15
4810          27          16
4820          28          20
4830          27          21
4840          31          20
4850          27          25
4860          27          21
4870          29          19
4880          29          20
4890          30          23
4900          30          18
4910          28          22
4920          29          18
4930          31          19
4940          28          24
4950          27          21
4960          30          22
4970          29          22
4980          31          16
4990          32          20
5000          29          22
5010          27          24
5020          30          18
5030          27          15
5040          26          16
5050          28          17
5060          26          19
5070          28          19
5080          30          15
5090          28          17
5100          28          21
5110          31          19
5120          29          17
5130          30          18
5140          27          20
5150          34          17
5160          30          17
5170          27          20
5180          28          19
5190          27          21
5200          30          16
5210          26          17
5220          26          20
5230          23          22
5240          28          21
5250          25          19
5260          29          19
5270          27          18
5280          28          20
5290          26          23
5300          28          20
5310          29          20
5320          27          19
5330          28          18
5340          27          21
5350          28          25
5360          27          24
5370          29          17
5380          27          20
5390          26          18
5400          24          20
5410          24          22
5420          26          25
5430          28          24
5440          26          21
5450          28          20
5460          24          22
5470          29          24
5480          28          22
5490          28          21
5500          31          18
5510          30          20
5520          28          25
5530          27          23
5540          27          25
5550          30          22
5560          27          26
5570          25          26
5580          29          23
5590          29          24
5600          29          23
5610          27          24
5620          23          25
5630          29          22
5640          30          20
5650          30          21
5660          29          26
5670          24          23
5680          24          33
5690          28          24
5700          29          27
5710          27          25
5720          31          30
5730          31          21
5740          28          27
5750          30          19
5760          30          27
5770          26          34
5780          29          21
5790          26          24
5800          29          25
5810          26          27
5820          25          21
5830          27          23
5840          29          22
5850          25          27
5860          26          28
5870          27          24
5880          28          24
5890          29          26
5900          28          21
5910          28          26
5920          31          21
5930          28          25
5940          27          20
5950          27          26
5960          30          24
5970          29          28
5980          28          30
5990          31          23
6000          26          31
6010          32          22
6020          30          21
6030          28          23
6040          29          24
6050          31          16
6060          26          31
6070          23          26
6080          24          23
6090          28          28
6100          29          22
6110          31          22
6120          26          27
6130          29          23
6140          28          23
6150          27          24
6160          25          23
6170          27          21
6180          28          26
6190          28          21
6200          29          21
6210          25          25
6220          28          29
6230          31          20
6240          29          24
6250          32          19
6260          30          24
6270          28          28
6280          29          27
6290          28          27
6300          25          37
6310          29          23
6320          28          28
6330          29          26
6340          28          31
6350          29          23
6360          27          23
6370          31          28
6380          27          20
6390          31          24
6400          30          23
6410          24          33
6420          28          25
6430          30          21
6440          31          27
6450          27          25
6460          26          26
6470          31          22
6480          26          26
6490          25          25
6500          25          27
6510          30          27
6520          29          24
6530          28          27
6540          27          29
6550          30          18
6560          28          24
6570          30          24
6580          31          18
6590          31          20
6600          31          24
6610          24          24
6620          23          32
6630          25          22
6640          31          17
6650          28          22
6660          30          22
6670          25          27
6680          28          23
6690          26          22
6700          30          22
6710          29          23
6720          25          23
6730          27          19
6740          27          20
6750          30          20
6760          29          22
6770          30          25
6780          29          21
6790          32          18
6800          25          22
6810          32          21
6820          24          25
6830          27          28
6840          29          25
6850          28          18
6860          27          27
6870          30          21
6880          31          24
6890          25          28
6900          28          22
6910          32          21
6920          28          22
6930          27          23
6940          30          23
6950          28          24
6960          28          24
6970          30          19
6980          28          25
6990          30          22
7000          30          23
7010          28          28
7020          29          23
7030          28          29
7040          31          20
7050          31          17
7060          27          24
7070          25          27
7080          23          31
7090          30          24
7100          31          20
7110          27          21
7120          30          20
7130          29          20
7140          29          23
7150          30          21
7160          27          21
7170          22          33
7180          27          26
7190          27          27
7200          28          26
7210          28          26
7220          31          22
7230          29          27
7240          31          19
7250          33          24
7260          25          27
7270          28          27
7280          32          23
7290          26          25
7300          28          21
7310          29          22
7320          27          28
7330          26          22
7340          27          23
7350          25          30
7360          31          23
7370          26          25
7380          27          22
7390          27          21
7400          27          22
7410          29          26
7420          30          22
7430          27          23
7440          23          27
7450          28          20
7460          28          20
7470          31          24
7480          31          28
7490          24          29
7500          32          17
7510          25          29
7520          28          22
7530          28          29
7540          27          20
7550          29          24
7560          27          23
7570          27          21
7580          27          23
7590          26          27
7600          28          23
7610          26          23
7620          28          26
7630          28          28
7640          29          25
7650          31          27
7660          27          21
7670          28          27
7680          31          21
7690          30          30
7700          27          25
7710          28          19
7720          26          24
7730          29          20
7740          29          24
7750          28          30
7760          28          29
7770          29          26
7780          26          20
7790          26          28
7800          30          21
7810          28          24
7820          32          29
7830          30          33
7840          32          26
7850          31          31
7860          33          25
7870          30          27
7880          30          30
7890          26          28
7900          29          23
7910          29          32
7920          26          24
7930          28          24
7940          31          22
7950          27          29
7960          24          25
7970          28          26
7980          29          24
7990          27          20
8000          28          24
8010          24          29
8020          26          26
8030          28          29
8040          32          22
8050          29          23
8060          29          22
8070          26          31
8080          32          23
8090          27          23
8100          31          25
8110          33          24
8120          33          25
8130          31          21
8140          25          29
8150          29          20
8160          27          29
8170          27          20
8180          24          25
8190          26          25
8200          26          18
8210          26          25
8220          25          22
8230          24          24
8240          27          16
8250          26          20
8260          27          21
8270          26          19
8280          26          19
8290          25          21
8300          28          21
8310          27          23
8320          26          27
8330          27          25
8340          25          21
8350          26          20
8360          26          19
8370          25          23
8380          25          23
8390          29          20
8400          25          25
8410          26          26
8420          31          22
8430          29          22
8440          28          23
8450          28          24
8460          27          23
8470          26          24
8480          23          24
8490          23          30
8500          24          27
8510          25          29
8520          25          25
8530          27          29
8540          26          26
8550          27          19
8560          29          21
8570          25          27
8580          29          18
8590          24          28
8600          22          26
8610          23          26
8620          25          26
8630          25          25
8640          22          26
8650          29          28
8660          27          30
8670          29          27
8680          28          24
8690          25          27
8700          24          28
8710          30          24
8720          28          25
8730          27          20
8740          30          19
8750          30          23
8760          27          26
8770          29          23
8780          29          26
8790          27          21
8800          29          21
8810          25          23
8820          25          25
8830          26          28
8840          27          28
8850          27          23
8860          26          22
8870          24          18
8880          27          21
8890          30          20
8900          24          21
8910          24          21
8920          28          21
8930          28          22
8940          26          25
8950          28          25
8960          27          25
8970          27          22
8980          26          22
8990          25          24
9000          29          23
9010          28          27
9020          27          25
9030          27          27
9040          26          22
9050          25          27
9060          30          22
9070          24          30
9080          29          28
9090          24          27
9100          23          31
9110          25          28
9120          26          25
9130          27          27
9140          27          24
9150          29          26
9160          26          24
9170          30          24
9180          29          22
9190          29          27
9200          28          23
9210          22          34
9220          30          23
9230          27          27
9240          27          24
9250          28          22
9260          31          23
9270          24          26
9280          23          32
9290          25          28
9300          24          29
9310          26          30
9320          29          26
9330          24          32
9340          35          23
9350          26          27
9360          26          27
9370          29          27
9380          30          24
9390          35          22
9400          24          30
9410          29          25
9420          30          26
9430          30          29
9440          28          25
9450          30          23
9460          26          28
9470          27          29
9480          31          22
9490          30          26
9500          29          25
9510          27          24
9520          27          23
9530          28          20
9540          28          23
9550          30          21
9560          30          21
9570          30          18
9580          28          21
9590          26          20
9600          30          15
9610          24          23
9620          24          21
9630          25          23
9640          25          26
9650          29          22
9660          27          15
9670          27          16
9680          25          19
9690          31          18
9700          27          21
9710          25          26
9720          29          21
9730          27          30
9740          24          26
9750          28          23
9760          26          22
9770          29          20
9780          29          22
9790          32          17
9800          31          19
9810          30          17
9820          31          22
9830          30          18
9840          30          24
9850          30          22
9860          28          20
9870          27          17
9880          29          16
9890          27          20
9900          29          22
9910          32          16
9920          27          21
9930          29          17
9940          25          19
9950          25          19
9960          29          17
9970          28          21
9980          28          22
9990          27          20
10000          27          24
