Time   C(t)   
ps   
0           1           1  3.22478e-10   0.0233031
10    0.771306    0.792723   -0.319281   0.0135444
20    0.729113    0.754482    0.390725  0.00378566
30    0.695593    0.724101   -0.192242  0.00299748
40    0.669163    0.700146     0.40873  0.00256391
50    0.644314    0.677625   -0.993675  0.00231689
60    0.622825    0.658148  -0.0464189  0.00212057
70    0.601903    0.639185    0.750468  0.00187671
80    0.585291    0.624129   -0.673815  0.00165236
90    0.568856    0.609233    0.101088  0.00145158
100    0.556259    0.597816    0.121009   0.0013408
110     0.54204    0.584928    0.723918  0.00140812
120    0.528097    0.572291    0.335372   0.0012898
130    0.516244    0.561548    0.118652  0.00117593
140    0.504579    0.550976    0.204418  0.00110642
150    0.494115    0.541492   -0.723297  0.00102613
160    0.484056    0.532375   -0.228348  0.00101764
170    0.473763    0.523046   -0.832477  0.000962929
180    0.464797     0.51492   -0.618157  0.000927079
190    0.455221     0.50624    -1.09318  0.000899322
200    0.446811    0.498618    -1.46025  0.00082887
210    0.438644    0.491216    -1.52494  0.000818741
220    0.430436    0.483777    -1.50462  0.000722931
230    0.424185    0.478111   -0.643108  0.000714996
240    0.416136    0.470816    -1.39809  0.000827137
250    0.407642    0.463117   -0.126934  0.000694086
260    0.402254    0.458234    -1.37798  0.000625275
270    0.395137    0.451783    -1.26996  0.000704114
280    0.388172    0.445471    -1.70216  0.000655352
290     0.38203    0.439904    -1.12079  0.000570582
300     0.37676    0.435128   -0.238408  0.000596981
310     0.37009    0.429082   -0.346137  0.000598124
320    0.364798    0.424286   -0.648138  0.000591005
330     0.35827    0.418369   -0.605413  0.00063785
340    0.352041    0.412723   -0.756667  0.000574203
350    0.346786     0.40796    0.967156  0.000518847
360    0.341664    0.403318   -0.326237  0.000489797
370     0.33699    0.399082   -0.607202  0.000463034
380    0.332403    0.394925    0.211247  0.000451954
390    0.327951    0.390889    -1.27604  0.00050375
400    0.322328    0.385793   -0.349315  0.000487766
410    0.318196    0.382048    -1.34113  0.000406411
420      0.3142    0.378426    -1.70788  0.000425467
430    0.309686    0.374335    -1.51443  0.000406907
440    0.306062     0.37105   -0.911519  0.000295952
450    0.303767    0.368971    -0.61017  0.000328301
460    0.299496    0.365099   -0.200819  0.000344737
470    0.296873    0.362722    0.144013  0.000317489
480    0.293146    0.359344   -0.395176  0.000332716
490    0.290218     0.35669   -0.201619  0.000348115
500    0.286184    0.353034   -0.287995  0.000409985
510    0.282019    0.349259   -0.503115  0.000295743
520    0.280269    0.347673    -1.47419  0.000296482
530    0.276089    0.343884    -1.02152  0.000347304
540    0.273323    0.341377    -1.38829  0.000276856
550    0.270552    0.338866    -1.36753  0.000343831
560    0.266446    0.335145    -1.49667  0.000334646
570    0.263859      0.3328    -1.34591  0.000332984
580    0.259787    0.329109     -1.9501  0.000342259
590    0.257014    0.326595    -1.19587  0.000236811
600     0.25505    0.324816     -1.6275  0.000171833
610    0.253577    0.323481   -0.873592  0.000205651
620    0.250937    0.321088    -1.30495  0.000311349
630     0.24735    0.317837    -2.01588  0.000320648
640    0.244524    0.315276     -1.6067  0.00024066
650    0.242537    0.313474    -1.58577  0.000294675
660    0.238631    0.309934    -1.56406  0.000339976
670    0.235737    0.307312    -1.06814  0.000293453
680    0.232762    0.304615     -1.0682  0.000277877
690     0.23018    0.302275   -0.572832  0.000224751
700    0.228267    0.300541    -1.90927  0.000211563
710    0.225948     0.29844     -1.0267  0.000219531
720    0.223876    0.296561   -0.444215  0.000230016
730    0.221348     0.29427   -0.508755  0.00015903
740    0.220696    0.293679    0.675647  0.000107992
750    0.219188    0.292313  0.00703995  0.000147124
760    0.217753    0.291012    0.330562  0.000142439
770     0.21634    0.289731     0.45958  0.000198154
780     0.21379     0.28742   -0.187023  0.000301869
790    0.210302    0.284259   -0.315998  0.000198998
800     0.20981    0.283813    0.200514  0.000108629
810     0.20813    0.282289    0.351135  0.000216336
820    0.205483    0.279891   -0.101551  0.000245887
830    0.203212    0.277832    0.372656  0.000156418
840    0.202355    0.277056     1.88085  0.000140319
850    0.200405    0.275289     1.51463  0.000181235
860     0.19873    0.273771     1.53564  0.000198215
870    0.196441    0.271696     0.99679  0.000198583
880    0.194759    0.270171     1.53533  0.000148078
890     0.19348    0.269011    0.931808  0.000152253
900    0.191714    0.267411      1.0823  0.000252167
910    0.188436     0.26444      2.2889  0.000247537
920    0.186763    0.262924     2.05209  0.000277637
930    0.182884    0.259408     1.74992  0.000319135
940     0.18038    0.257139     1.40526  0.000203142
950    0.178821    0.255725     1.38342  0.000221631
960    0.175948    0.253121     2.35325  0.000237498
970    0.174071     0.25142     3.81872  0.000204594
980    0.171856    0.249413      2.4606  0.000229517
990     0.16948     0.24726     2.93464  0.000240357
1000    0.167049    0.245056     2.58966  0.000190499
1010     0.16567    0.243807     3.34384  0.000130223
1020    0.164444    0.242695     3.10636  0.00018747
1030    0.161921    0.240408     3.12775  0.000229283
1040    0.159858    0.238539     3.34332  0.000196102
1050    0.157999    0.236854     3.53671  0.000218619
1060    0.155486    0.234576     2.89061  0.000259386
1070    0.152811    0.232152     2.95509  0.00017014
1080    0.152083    0.231492     2.52354  0.000109375
1090    0.150624    0.230169     2.00623  0.000152637
1100    0.149031    0.228725     2.30758  0.000162104
1110    0.147382    0.227231     2.19943  0.000169021
1120     0.14565    0.225661     2.22131  0.000204751
1130    0.143287    0.223519     2.11333  0.000165851
1140    0.142333    0.222655     1.33714  0.000153187
1150    0.140223    0.220742     1.59572   0.0001863
1160    0.138607    0.219278     1.18624  0.000131517
1170    0.137593    0.218358     1.63843  7.12946e-05
1180    0.137181    0.217986     1.81038  0.000116316
1190    0.135266     0.21625     2.04778  0.000199616
1200    0.133189    0.214367     1.74607  0.000147201
1210    0.132322    0.213582     2.17703  0.00015555
1220    0.130078    0.211547     1.96146  0.000191581
1230    0.128491    0.210109     1.53019  0.000206643
1240    0.125945    0.207802     1.89652  0.000163273
1250    0.125225    0.207149    0.689064  0.000125207
1260    0.123441    0.205532    0.775167  0.000170656
1270    0.121812    0.204056    0.925768  0.000133773
1280    0.120765    0.203107     1.07687  0.000131439
1290    0.119183    0.201673    0.494791  0.000110363
1300    0.118558    0.201107    0.796308  7.86178e-05
1310    0.117611    0.200248    0.925389  0.000167076
1320    0.115217    0.198078    0.279018  0.000109774
1330    0.115415    0.198258    0.731368  5.51991e-05
1340    0.114113    0.197077     1.31286  0.000115658
1350    0.113102    0.196162    0.946004  0.000195212
1360    0.110208    0.193539     1.07532  0.000249382
1370    0.108115    0.191641     1.07567  0.000224421
1380     0.10572    0.189471     1.54986  0.000141306
1390    0.105288     0.18908     1.33386  0.000120156
1400    0.103317    0.187293    0.709048  0.000152781
1410    0.102233     0.18631     1.09694  0.000111246
1420    0.101092    0.185276    0.709006  4.24009e-05
1430    0.101385    0.185542    0.816145  1.54443e-05
1440    0.100783    0.184996    0.966788  3.98867e-05
1450    0.100587    0.184819    0.514312  2.50503e-05
1460    0.100282    0.184542     1.37639  5.09527e-05
1470   0.0995681    0.183895     1.93683  7.14999e-05
1480   0.0988521    0.183246     1.63478  0.000171269
1490   0.0961427     0.18079     1.29029  0.000156518
1500   0.0957217    0.180409     1.78591  9.27456e-05
1510   0.0942878    0.179109     1.61328  0.000139461
1520   0.0929325    0.177881     1.33274  0.000130194
1530   0.0916839    0.176749     1.26864  0.000119532
1540   0.0905419    0.175714     1.31139  8.68462e-05
1550    0.089947    0.175175      1.1172  7.74544e-05
1560   0.0889928     0.17431    0.449329  7.48694e-05
1570   0.0884496    0.173818    0.880096  5.8518e-05
1580   0.0878224    0.173249    0.427451  1.44713e-05
1590   0.0881601    0.173555     1.18136  2.97703e-05
1600    0.087227     0.17271    0.987193  6.15876e-05
1610   0.0869284    0.172439     1.15965  6.03925e-05
1620   0.0860192    0.171615     1.24624  6.32849e-05
1630   0.0856627    0.171292    0.534696  6.62394e-05
1640   0.0846944    0.170414     1.33209  8.58247e-05
1650   0.0839462    0.169736      1.6554  2.33911e-05
1660   0.0842265     0.16999     1.84879  3.99612e-06
1670   0.0838663    0.169664    0.878686  8.07296e-05
1680    0.082612    0.168527    0.986561  0.000128374
1690   0.0812988    0.167337    0.555269  0.000127281
1700   0.0800663     0.16622    0.964978  0.000150003
1710   0.0782988    0.164618     1.07269  0.000179774
1720   0.0764708    0.162961     1.39587  4.96406e-05
1730   0.0773059    0.163718     1.39534  2.32123e-05
1740   0.0760066     0.16254      0.9216  0.000135736
1750   0.0745912    0.161257     1.11543  0.000151557
1760   0.0729754    0.159793     1.89128  6.58449e-05
1770   0.0732743    0.160064     1.26595  6.75377e-05
1780   0.0716247    0.158569    0.533012  0.000139713
1790   0.0704801    0.157531    0.425263  3.38797e-05
1800   0.0709471    0.157954    0.748237  9.96254e-06
1810   0.0702808     0.15735    0.726275  9.50906e-05
1820   0.0690453    0.156231     0.61901  0.000162081
1830   0.0670392    0.154412    0.166323  0.000159589
1840   0.0658535    0.153338    0.899385  9.4495e-05
1850   0.0651493      0.1527    0.920653  9.76093e-05
1860   0.0639013    0.151568    0.575632  0.000113519
1870   0.0628789    0.150642    0.359986  0.000135262
1880   0.0611961    0.149117    0.790963  0.000131261
1890   0.0602537    0.148262    0.726128  8.57597e-05
1900   0.0594809    0.147562     0.20909  5.58471e-05
1910   0.0591367     0.14725    0.812315  5.31385e-05
1920   0.0584181    0.146599    0.812062  9.78447e-05
1930   0.0571798    0.145476    0.725391  0.000128308
1940    0.055852    0.144273    0.445457  0.000102662
1950   0.0551266    0.143615    0.337539  8.12886e-05
1960   0.0542262    0.142799    0.466746  4.82202e-05
1970   0.0541622    0.142741      0.4232  3.53668e-05
1980   0.0535189    0.142158    0.401932  7.60136e-05
1990   0.0526419    0.141364    0.401764  0.000108117
2000   0.0513565    0.140198    0.294225  0.00011417
2010   0.0503585    0.139294    0.746764  6.50112e-05
2020   0.0500563     0.13902    0.660282  7.39535e-05
2030   0.0488795    0.137953    0.487719  4.78232e-05
2040   0.0490998    0.138153   -0.525403  7.28602e-05
2050   0.0474223    0.136633    0.444299  7.1471e-05
2060   0.0476704    0.136858   -0.137867  2.4917e-05
2070   0.0469239    0.136181   -0.482762  0.000118729
2080   0.0452958    0.134705    0.185275  9.55002e-05
2090   0.0450139     0.13445  -0.0736642  0.000135512
2100   0.0425856    0.132249   -0.267095  0.000148956
2110   0.0420348     0.13175   -0.461284  4.63163e-05
2120   0.0416592    0.131409    -1.06474  4.05481e-05
2130   0.0412238    0.131015     -0.1162  6.87089e-05
2140   0.0402851    0.130164    0.120862  9.10323e-05
2150   0.0394032    0.129365    0.120798  8.23811e-05
2160   0.0386374    0.128671    0.228022  5.59179e-05
2170   0.0382848    0.128351    0.357608  2.49047e-05
2180   0.0381394    0.128219    0.249816  3.53923e-05
2190    0.037577    0.127709    0.249795  2.65209e-05
2200   0.0376089    0.127738  -0.0305181  2.81131e-05
2210   0.0370147      0.1272    0.465252  3.71037e-05
2220   0.0368669    0.127066   -0.267853  1.7803e-05
2230   0.0366587    0.126877   -0.246417  5.97371e-05
2240   0.0356721    0.125983  -0.0308758  4.33628e-05
2250   0.0357914    0.126091    0.486351  4.05531e-05
2260   0.0348611    0.125248   -0.246459  1.52979e-06
2270   0.0357608    0.126063   -0.375708  -3.29442e-05
2280   0.0355199    0.125845   -0.117378  -2.25618e-05
2290   0.0362121    0.126472    0.248932  3.32359e-05
2300   0.0348552    0.125243   -0.311125  5.58391e-05
2310   0.0350953     0.12546   -0.181961  -1.04358e-05
2320   0.0350639    0.125432   -0.311357  3.19071e-05
2330   0.0344571    0.124882   -0.268021  3.34674e-05
2340   0.0343946    0.124825    0.119367  -1.3458e-05
2350   0.0347263    0.125126    -0.91496  -1.30907e-06
2360   0.0344208    0.124849   -0.246669  1.0816e-05
2370     0.03451     0.12493   -0.225317  -1.34995e-05
2380   0.0346908    0.125093  -0.0313809  9.34955e-06
2390    0.034323     0.12476   -0.268569  4.75142e-06
2400   0.0345957    0.125007  -0.0962579  1.5525e-05
2410   0.0340125    0.124479     0.31324  0.000105881
2420   0.0324781    0.123088    0.356408  0.000107623
2430     0.03186    0.122528    0.097889  3.11829e-05
2440   0.0318545    0.122523    0.119304  2.82334e-05
2450   0.0312954    0.122016   -0.139551  7.60024e-05
2460   0.0303344    0.121145   -0.592175  2.83803e-05
2470   0.0307278    0.121502   -0.506198  1.15596e-05
2480   0.0301032    0.120936    0.398943  1.30688e-05
2490   0.0304664    0.121265    0.377233  8.53082e-06
2500   0.0299326    0.120781    0.657673  4.72429e-05
2510   0.0295215    0.120408   0.0973417  -1.31569e-05
2520   0.0301957    0.121019    0.140425  -5.19795e-05
2530   0.0305611    0.121351    0.377233  6.99805e-06
2540   0.0300558    0.120893   -0.118157  1.78709e-05
2550   0.0302037    0.121027  -0.0322439  2.26453e-05
2560   0.0296029    0.120482  -0.0538065  9.45412e-05
2570   0.0283129    0.119313  -0.0321176  2.43374e-05
2580   0.0291161    0.120041    0.032128  2.14122e-05
2590   0.0278846    0.118925   -0.808137  8.25164e-05
2600   0.0274658    0.118545   -0.420432  5.29458e-05
2610   0.0268257    0.117965    -0.50664  -1.77167e-05
2620   0.0278201    0.118866   0.0102498  -5.38953e-05
2630   0.0279036    0.118942   -0.420748  7.41612e-06
2640   0.0276718    0.118732   0.0317067  2.63757e-05
2650   0.0273761    0.118464   -0.722476  7.46697e-06
2660   0.0275225    0.118597    -0.24829  -1.14901e-05
2670   0.0276059    0.118672   -0.248606  5.98428e-05
2680   0.0263256    0.117512    0.139393  0.000104385
2690   0.0255182     0.11678   -0.421064  4.90431e-05
2700   0.0253447    0.116623   -0.270021  -9.71286e-06
2710   0.0257125    0.116956   -0.615042  3.17675e-05
2720   0.0247094    0.116047   -0.463936  9.40496e-05
2730   0.0238315    0.115251   -0.248564  9.75112e-05
2740   0.0227592    0.114279   0.0318542  4.65198e-05
2750   0.0229011    0.114408    0.247164  3.43323e-06
2760   0.0226905    0.114217    0.742765  4.83843e-05
2770   0.0219334    0.113531    0.483994  6.93838e-05
2780   0.0213028    0.112959    0.807579  3.09397e-05
2790   0.0213146     0.11297    0.419306  3.10696e-05
2800   0.0206814    0.112396    0.117641  4.88705e-05
2810   0.0203372    0.112084    0.419285  4.25588e-05
2820   0.0198303    0.111625    0.505577  6.69613e-05
2830    0.018998     0.11087    0.419201  6.71236e-05
2840   0.0184878    0.110408    0.699387  7.25249e-06
2850   0.0188529    0.110739     1.34584  4.08348e-06
2860   0.0184061    0.110334     1.17311  9.52263e-05
2870   0.0169484    0.109013      1.3242  0.000101946
2880   0.0163672    0.108486     0.95799  5.65677e-05
2890    0.015817    0.107987    0.915013  6.32703e-05
2900   0.0151018    0.107339    0.613306  -3.80922e-05
2910   0.0165789    0.108678    0.225117  -3.80425e-05
2920   0.0158626    0.108029   -0.356713  9.14272e-05
2930   0.0147503    0.107021   0.0527223  2.91628e-05
2940   0.0152794      0.1075    0.397428  -1.51005e-05
2950   0.0150523    0.107294    0.332656  7.3859e-05
2960   0.0138022    0.106161    0.613011  2.11471e-05
2970   0.0146294    0.106911    0.699114  -6.75758e-06
2980   0.0139374    0.106284    0.763654  3.45176e-05
2990   0.0139391    0.106285     0.78509  3.79805e-05
3000   0.0131778    0.105595    0.936133  0.000111127
3010   0.0117165    0.104271    0.440721  4.48565e-05
3020   0.0122806    0.104782     1.21634  3.18003e-05
3030   0.0110805    0.103694     1.36711  3.51062e-05
3040   0.0115785    0.104146    0.957275  2.36354e-05
3050   0.0106078    0.103266     1.17298  8.71704e-05
3060   0.0098351    0.102566    0.871361  3.54975e-05
3070  0.00989784    0.102622    0.526256  -7.50797e-05
3080   0.0113367    0.103927    0.224444  -2.31113e-05
3090   0.0103601    0.103041    0.698588  1.53542e-05
3100   0.0110296    0.103648    0.806295  -2.99812e-05
3110   0.0109597    0.103585    0.676941  3.90721e-05
3120   0.0102482     0.10294    0.784817  6.61795e-05
3130   0.0096361    0.102385    0.806295  8.83164e-06
3140   0.0100715     0.10278    0.806042  -2.66613e-05
3150   0.0101693    0.102869    0.698272  4.7926e-05
3160  0.00911301    0.101911    0.698335  3.43832e-05
3170  0.00948167    0.102245    0.525856  3.45871e-05
3180  0.00842127    0.101284    0.181319  3.28764e-05
3190  0.00882414    0.101649   0.0303601  -8.64412e-05
3200   0.0101501    0.102851   -0.551533  -2.84851e-05
3210  0.00939384    0.102166     0.28911  -2.70132e-05
3220   0.0106904    0.103341   0.0517963  -4.92367e-05
3230   0.0103786    0.103058     0.18115  2.77916e-05
3240   0.0101345    0.102837    0.094753  6.05567e-05
3250  0.00916744     0.10196    0.159504  1.93411e-05
3260   0.0097477    0.102486   -0.185581  2.26842e-06
3270  0.00912207    0.101919    0.137962  1.94524e-05
3280  0.00935866    0.102134    0.396291  5.41838e-05
3290   0.0080384    0.100937    0.288795  5.77021e-05
3300  0.00820461    0.101088    0.482562  -1.14425e-05
3310  0.00826725    0.101145    0.482457  3.71839e-05
3320  0.00746094    0.100414  -0.0777262  3.54951e-05
3330  0.00755734    0.100501  -0.0778736  3.04358e-05
3340  0.00685222   0.0998621  -0.0993309  4.09415e-05
3350  0.00673851    0.099759   -0.035064  6.20931e-05
3360  0.00561036   0.0987365    0.310041  3.76882e-05
3370  0.00598475   0.0990758    0.374476  -1.99617e-05
3380  0.00600959   0.0990984     0.46039  9.23673e-05
3390   0.0041374   0.0974015    0.374392  0.000122411
3400  0.00356137   0.0968794     0.20185  3.83126e-05
3410  0.00337115    0.096707    0.223034  5.96335e-05
3420   0.0023687   0.0957984    0.675699  8.2726e-05
3430  0.00171663   0.0952074    0.417222  7.94612e-05
3440  0.000779478    0.094358    0.632806  9.91804e-05
3450  -0.000266975   0.0934096     1.06399  0.000149192
3460  -0.00220436   0.0916537    0.546913  8.91268e-05
3470  -0.00204951    0.091794    0.633058  -3.15389e-05
3480  -0.00157358   0.0922254    0.719014  -3.87446e-05
3490  -0.00127462   0.0924963    0.826532  2.36432e-05
3500  -0.00204645   0.0917968     1.12839  1.82683e-05
3510  -0.00163999   0.0921652    0.675763  1.84167e-05
3520  -0.00241478   0.0914629     1.14959  6.86259e-05
3530  -0.0030125   0.0909212     1.21455  9.76115e-05
3540  -0.00436701   0.0896935     1.30089  8.16524e-05
3550  -0.00464555   0.0894411    0.826616  4.23237e-05
3560  -0.00521348   0.0889263      0.9992  2.43806e-05
3570  -0.00513316   0.0889991     1.02072  1.18481e-05
3580  -0.00545045   0.0887116    0.977806   -2.64e-06
3590  -0.00508036    0.089047    0.417286  -3.16244e-05
3600  -0.00481796   0.0892848    0.847989  -8.10905e-06
3610  -0.00491818    0.089194     1.02059  -1.17972e-05
3620  -0.00458201   0.0894987    0.934218  -1.90916e-05
3630  -0.00453635   0.0895401     1.02057  -1.5528e-05
3640  -0.00427145   0.0897801     1.40859  -8.24428e-06
3650  -0.00437146   0.0896895     1.17141  -1.74565e-05
3660  -0.00392232   0.0900966     1.02022  -2.48027e-05
3670  -0.00387541   0.0901391     1.36501  2.83634e-05
3680  -0.00448959   0.0895824     1.43007  1.18391e-05
3690  -0.00411219   0.0899245    0.955675  8.27019e-06
3700   -0.004655   0.0894325    0.869341  1.92995e-05
