Time   C(t)   
ps   
0           1           1  1.68169e-10    0.025749
10    0.748388    0.751018     1.65452   0.0155989
20    0.688022    0.691283    0.676751  0.00544877
30    0.639413    0.643182     1.88877   0.0045394
40    0.597234    0.601444     1.61878  0.00385646
50    0.562283    0.566859    0.399444  0.00337556
60    0.529723    0.534638    0.421097  0.00310927
70    0.500098    0.505324     1.36797  0.00271518
80    0.475419    0.480902      1.5601  0.00244987
90    0.451101    0.456839      1.8502  0.00232488
100    0.428921    0.434891    0.900074  0.00212693
110    0.408562    0.414745    0.752649  0.00204393
120    0.388043     0.39444   -0.635619  0.00195193
130    0.369524    0.376114   -0.612706  0.00176737
140    0.352695    0.359462    -0.93092  0.00164304
150    0.336663    0.343597    -1.15117   0.0015317
160    0.322061    0.329148   -0.593239  0.00144097
170    0.307843    0.315079   -0.764502  0.00140239
180    0.294014    0.301393   -0.619762  0.00129509
190    0.281942    0.289448   -0.571729  0.00111533
200    0.271707     0.27932  -0.0381153  0.00110918
210    0.259758    0.267496   0.0589962  0.00108437
220     0.25002    0.257859   -0.185611  0.000990789
230    0.239942    0.247887  -0.0644478  0.000915341
240    0.231713    0.239744    0.980176  0.000880402
250    0.222334    0.230463    0.736163  0.000874736
260    0.214218    0.222432     0.41909  0.000796432
270    0.206406    0.214701   -0.383968  0.000730152
280    0.199615    0.207982   -0.652818  0.000711915
290    0.192167    0.200612   -0.701991  0.000682464
300    0.185966    0.194475   -0.679055  0.000576169
310    0.180644    0.189209    -1.38462  0.000578609
320    0.174394    0.183024   -0.534386  0.000578506
330    0.169074     0.17776   -0.827098  0.000566066
340    0.163072    0.171821   -0.657117  0.000551073
350    0.158052    0.166853    -1.50954  0.000559758
360    0.151877    0.160743    -1.29048  0.000593238
370    0.146188    0.155113   -0.804518  0.000535833
380     0.14116    0.150138    -1.24261  0.000464556
390    0.136896    0.145919    -2.28921  0.00042182
400    0.132724     0.14179    -1.46272  0.000407679
410    0.128743     0.13785    -2.02302  0.000365953
420    0.125405    0.134547    -2.33978  0.000347917
430    0.121785    0.130965    -1.12392  0.000354903
440    0.118307    0.127523    -1.70789  0.000312923
450    0.115526    0.124772    -1.14909  0.000327456
460    0.111758    0.121043    -1.78164  0.000353299
470     0.10846     0.11778    -1.53877  0.000285965
480    0.106038    0.115383    -1.32073  0.000237397
490    0.103712    0.113081    -1.73468  0.000248015
500    0.101078    0.110475    -1.02978  0.000273799
510   0.0982362    0.107663   -0.835293  0.000264246
520   0.0957932    0.105245    -0.66555  0.000259758
530    0.093041    0.102522    -0.37386  0.000242521
540   0.0909428    0.100445   -0.446895  0.000239261
550   0.0882558   0.0977865     -1.1768  0.000265172
560   0.0856394   0.0951974   -0.471612  0.000242816
570   0.0833995   0.0929809    -1.05547  0.000214041
580   0.0813585   0.0909613   -0.812239  0.000178801
590   0.0798235   0.0894423   -0.374857   0.0001856
600   0.0776465   0.0872881   -0.156345  0.000217906
610   0.0754653   0.0851297   -0.715769    0.000235
620   0.0729465   0.0826372   -0.886248  0.000220127
630   0.0710628   0.0807732   -0.449318  0.000201398
640   0.0689186   0.0786514    -1.05723  0.000172275
650   0.0676173   0.0773637    -1.32534  0.000154697
660   0.0658247   0.0755898    -1.71462  0.000152433
670   0.0645687   0.0743469    -1.25261  0.000147638
680   0.0628719   0.0726679    -1.08268  0.00020209
690   0.0605268   0.0703474    -1.32593  0.000188287
700   0.0591061   0.0689415      -1.886  0.000161601
710   0.0572948   0.0671491    -2.05645  0.000192974
720   0.0552467   0.0651224    -2.12954  0.000166189
730   0.0539711   0.0638601    -2.17845  0.000125111
740   0.0527444   0.0626463    -2.51908  8.12631e-05
750   0.0523458   0.0622518    -2.25179  5.93971e-05
760   0.0515565   0.0614708    -2.59247  5.56089e-05
770   0.0512336   0.0611513    -1.49819  5.18473e-05
780   0.0505196   0.0604447   -0.914338  8.71252e-05
790   0.0494911    0.059427    -1.30381  0.000110785
800   0.0483039   0.0582522    -1.71706  8.22751e-05
810   0.0478456   0.0577987    -1.54701  5.24199e-05
820   0.0472555   0.0572147    -1.64438  0.000123217
830   0.0453813   0.0553601    -2.54441  8.93481e-05
840   0.0454685   0.0554464    -2.47173  5.02953e-05
850   0.0443754   0.0543647    -2.10693  8.18575e-05
860   0.0438314   0.0538264    -2.27763  6.36606e-05
870   0.0431022   0.0531048    -2.15594  0.000103279
880   0.0417658   0.0517824    -1.74237  8.76617e-05
890   0.0413489   0.0513699    -1.18293  6.54744e-05
900   0.0404563   0.0504866    -1.81572  9.4644e-05
910    0.039456   0.0494968    -1.62128  7.36944e-05
920   0.0389824   0.0490281    -1.18364  2.88937e-05
930   0.0388782    0.048925    -1.30566  5.54748e-05
940   0.0378729   0.0479302    -1.08677  0.000124516
950   0.0363878   0.0464607   -0.673009  9.95403e-05
960   0.0358821   0.0459602   -0.867778  5.46146e-05
970   0.0352956   0.0453798    -1.06264  6.40478e-05
980   0.0346011   0.0446927   -0.649147  8.0172e-05
990   0.0336921   0.0437931   -0.576587  0.000119013
1000   0.0322209   0.0423373   -0.649361  0.000113909
1010   0.0314139   0.0415388   -0.917237  0.000107516
1020   0.0300706   0.0402094   -0.771023  0.000101032
1030   0.0293933   0.0395393    -0.55244  8.78995e-05
1040   0.0283126   0.0384698   -0.941479  9.74613e-05
1050   0.0274441   0.0376104   -0.357671  8.82931e-05
1060   0.0265467   0.0367224   -0.722776  8.31139e-05
1070   0.0257818   0.0359655   0.0796633  8.46502e-05
1080   0.0248537   0.0350471   -0.358241  7.80958e-05
1090   0.0242199   0.0344199   -0.115011  3.6482e-05
1100   0.0241241   0.0343251  -0.0179945  5.54969e-05
1110   0.0231099   0.0333216    0.225211  7.71938e-05
1120   0.0225802   0.0327974    0.346803  7.06302e-05
1130   0.0216973   0.0319238    0.492636  8.4318e-05
1140   0.0208938   0.0311286   0.0790456  7.09509e-05
1150   0.0202783   0.0305196    0.468156  4.53248e-05
1160   0.0199873   0.0302316    0.103145  4.5446e-05
1170   0.0193694   0.0296202   0.0300623  5.77754e-05
1180   0.0188318   0.0290882  -0.0430444  3.74734e-05
1190   0.0186199   0.0288785  -0.0914812  3.62157e-05
1200   0.0181075   0.0283715   0.0786891  2.80882e-05
1210   0.0180582   0.0283226    0.127506  2.68126e-05
1220   0.0175713   0.0278408    0.200423  2.00042e-05
1230   0.0176581   0.0279267    0.151535  1.87114e-05
1240    0.017197   0.0274705   -0.164754  1.18624e-05
1250   0.0174208    0.027692   -0.116151  1.46761e-05
1260   0.0169035     0.02718   -0.262056  4.07923e-05
1270    0.016605   0.0268846    -0.33502  9.23825e-06
1280   0.0167187   0.0269972    0.443249  -4.49568e-06
1290   0.0166949   0.0269736   0.0783329  2.30797e-05
1300   0.0162572   0.0265404   -0.311086  4.52071e-05
1310   0.0157908   0.0260789   0.0538294  3.56291e-05
1320   0.0155446   0.0258353     0.24829  2.32636e-05
1330   0.0153255   0.0256185    0.224095  1.22323e-05
1340   0.0152999   0.0255932    0.223976  2.55825e-06
1350   0.0152743   0.0255679    0.467087  -8.55001e-06
1360   0.0154709   0.0257624    0.345235  2.62134e-05
1370   0.0147501   0.0250491   0.0534492  -2.36789e-07
1380   0.0154757   0.0257671    0.369382  -1.82747e-05
1390   0.0151156   0.0254108    0.612683  8.1386e-06
1400   0.0153129    0.025606     0.32066  -2.67433e-05
1410   0.0156504     0.02594    0.369026  3.97838e-06
1420   0.0152333   0.0255273   0.0771213  2.35526e-05
1430   0.0151794   0.0254739    0.320351  1.10086e-05
1440   0.0150131   0.0253094   0.0528554  2.64705e-05
1450     0.01465     0.02495   -0.287866  2.79273e-05
1460   0.0144546   0.0247567  -0.0934054  2.80018e-05
1470   0.0140899   0.0243959    0.368835  3.22835e-05
1480   0.0138089   0.0241178    0.466066  2.10806e-05
1490   0.0136683   0.0239787    0.563367  1.54901e-05
1500   0.0134991   0.0238112    0.441633  2.68357e-05
1510   0.0131316   0.0234475    0.611923  6.9352e-05
1520   0.0121121   0.0224387    0.709367  6.09731e-05
1530   0.0119121   0.0222408    0.806787  1.15079e-05
1540   0.0118819    0.022211    0.855105  7.28345e-06
1550   0.0117665   0.0220967     1.17139  -6.92597e-06
1560   0.0120205    0.022348      1.1471  -2.40067e-05
1570   0.0122466   0.0225718    0.976649  3.01972e-06
1580   0.0119601   0.0222883     1.36578  3.72513e-05
1590   0.0115016   0.0218346     1.26855  4.46294e-06
1600   0.0118708   0.0221999    0.806336  -3.69657e-05
1610   0.0122409   0.0225662    0.708892  -1.98656e-05
1620   0.0122681   0.0225931     0.66017  -8.46027e-06
1630   0.0124101   0.0227336     1.02513  7.32043e-06
1640   0.0121217   0.0224482    0.903399  1.23773e-07
1650   0.0124076   0.0227311     1.31668  3.61381e-05
1660   0.0113989    0.021733     1.04938  4.04699e-05
1670   0.0115982   0.0219302     1.07364  -1.27384e-05
1680   0.0116537   0.0219851     1.07333  3.11136e-06
1690    0.011536   0.0218686     1.02454  2.91385e-05
1700   0.0110709   0.0214084    0.927547  2.33956e-05
1710   0.0110681   0.0214056     1.19492  -1.16234e-06
1720   0.0110942   0.0214314     1.26803  -1.8581e-05
1730   0.0114397   0.0217733    0.902972  -1.27945e-05
1740   0.0113501   0.0216847    0.854464  1.04281e-05
1750   0.0112311    0.021567    0.586659  3.16701e-06
1760   0.0112867    0.021622    0.854107  2.79793e-05
1770   0.0106716   0.0210132    0.756996  2.80073e-05
1780   0.0107266   0.0210677    0.489334  1.05719e-05
1790   0.0104601    0.020804      0.4895  -4.06005e-06
1800   0.0108078    0.021148    0.148779  4.76041e-06
1810   0.0103649   0.0207098  -0.0697334  5.02132e-05
1820  0.00980353   0.0201543    0.124727  3.26989e-05
1830  0.00971093   0.0200626    0.148922  2.83936e-05
1840  0.00923565   0.0195923    0.197786  3.28583e-05
1850  0.00905376   0.0194123    0.270608  1.96866e-05
1860  0.00884192   0.0192027    0.100247  1.67809e-05
1870  0.00871815   0.0190802  -0.0701373  2.56965e-05
1880  0.00832799   0.0186942  0.00275571  2.87033e-05
1890  0.00814408   0.0185122    0.148732  2.13777e-05
1900  0.00790044   0.0182711   -0.118954  2.29103e-05
1910  0.00768587   0.0180588  -0.0216053  2.29684e-05
1920  0.00744107   0.0178165    0.416203  1.85614e-05
1930  0.00731465   0.0176914     0.53789  3.94649e-05
1940  0.00665177   0.0170355   0.0757435  2.61098e-05
1950  0.00679245   0.0171747  -0.0461326  6.81644e-06
1960  0.00651544   0.0169006    0.318902  -3.65593e-06
1970  0.00686557    0.017247   0.0512163  -2.12956e-06
1980  0.00655804   0.0169427   0.0269265  2.62958e-05
1990  0.00633965   0.0167266    0.197453  2.93676e-05
2000  0.00597068   0.0163615     0.05143  1.29069e-05
2010  0.00608152   0.0164712    0.148399  -1.10963e-05
2020  0.00619261   0.0165811  -0.0462514  -3.59409e-06
2030   0.0061534   0.0165423   -0.289267  -1.11537e-05
2040  0.00641568   0.0168018   -0.313771  -1.56913e-05
2050  0.00646722   0.0168528   -0.119097  -1.57435e-05
2060  0.00673055   0.0171134   0.0755773  -3.5448e-05
2070  0.00717618   0.0175544   -0.581338  -2.34009e-05
2080  0.00719857   0.0175765   -0.411072  -2.04518e-05
2090  0.00758522   0.0179592  -0.0462752  -3.41561e-05
2100  0.00788169   0.0182525   -0.216541  -3.57697e-05
2110  0.00830061   0.0186671   0.0509787  -8.43382e-06
2120  0.00805037   0.0184194    0.172807  3.1157e-05
2130  0.00767747   0.0180504   0.0999619  3.42834e-05
2140   0.0073647   0.0177409   0.0756009  3.79325e-06
2150  0.00760161   0.0179754  0.00263676  -2.37217e-05
2160  0.00783914   0.0182104    0.148446  5.34391e-06
2170  0.00749473   0.0178696   0.0998195  2.68109e-05
2180  0.00730292   0.0176798  -0.0946883  5.37292e-06
2190  0.00738727   0.0177633  -0.0946647  -8.44589e-06
2200  0.00747183    0.017847    0.051145  -2.23354e-05
2210  0.00783398   0.0182053  -0.0705174  -2.08324e-05
2220  0.00788848   0.0182592   -0.435386   1.617e-05
2230  0.00751058   0.0178853   0.0268552  8.45022e-06
2240  0.00771948    0.018092   0.0996769  -3.8807e-06
2250  0.00758819   0.0179621  -0.0462515  2.71022e-05
2260  0.00717743   0.0175556   -0.119168  3.02607e-05
2270  0.00698298   0.0173632   -0.192204  2.87986e-05
2280  0.00660146   0.0169857  -0.0462515  1.79623e-05
2290  0.00662374   0.0170077   -0.021938  -3.78827e-06
2300  0.00667723   0.0170607   -0.143482  8.69115e-06
2310  0.00644991   0.0168357  -0.0217716  1.33842e-05
2320  0.00640954   0.0167958    0.124038  5.60659e-06
2330  0.00633778   0.0167248   -0.167747   5.619e-06
2340  0.00629716   0.0166846   -0.119168  1.50504e-05
2350  0.00603677   0.0164269   -0.216327  5.64905e-06
2360  0.00618418   0.0165728    0.197382  -6.02263e-07
2370  0.00604882   0.0164388   -0.337776  -6.92357e-06
2380  0.00632265   0.0167098    0.172902  8.85765e-06
2390  0.00587167   0.0162635  -0.0704937  -6.42985e-07
2400  0.00633551   0.0167225  -0.0948547  -6.90953e-06
2410  0.00600986   0.0164003   -0.192227  1.83564e-05
2420  0.00596839   0.0163592  -0.0949259  9.81544e-07
2430  0.00599023   0.0163808   -0.022033  -6.94934e-06
2440  0.00610737   0.0164968   -0.095116  9.87831e-07
2450  0.00597047   0.0163613   0.0995106  1.21156e-05
2460  0.00586506    0.016257   -0.265429  3.28731e-05
2470  0.00531301   0.0157107  -0.0220806  4.57007e-05
2480  0.00495105   0.0153525   0.0996531  3.14494e-05
2490  0.00468402   0.0150883   0.0024229  2.67389e-05
2500  0.00441627   0.0148233   -0.216636  2.68102e-05
2510  0.00414782   0.0145577   -0.168128  2.52773e-05
2520  0.00391072   0.0143231  -0.0708025  1.40992e-05
2530  0.00386583   0.0142786      0.1238  -3.31714e-07
2540  0.00391736   0.0143296   -0.046489  2.89646e-06
2550   0.0038079   0.0142213    -0.19237  4.5073e-06
2560  0.00382721   0.0142404   -0.289671  -1.93408e-06
2570  0.00384658   0.0142596  -0.0708737  1.90902e-05
2580  0.00344541   0.0138626  -0.0466553  3.36921e-05
2590  0.00317274   0.0135928   0.0505274  1.91933e-05
2600  0.00306154   0.0134828    0.147852  -9.98003e-06
2610  0.00337234   0.0137903  -0.0469166  -1.3231e-05
2620  0.00332616   0.0137446    0.123301  1.7653e-05
2630  0.00301928   0.0134409    0.172118  2.09446e-05
2640  0.00290727   0.0133301    0.171928  2.59144e-05
2650  0.00250099   0.0129281    0.415253  2.59652e-05
2660  0.00238796   0.0128162    0.147734  3.1302e-06
2670  0.00243839   0.0128661    0.220579  4.78943e-06
2680  0.00229218   0.0127214     0.26904  2.44937e-05
2690  0.00194852   0.0123814    0.269206  2.94799e-05
2700  0.00170258    0.012138    0.171952  2.29815e-05
2710  0.00148889   0.0119265    0.244892  1.61278e-06
2720  0.00167032   0.0121061    0.293424  1.64416e-06
2730    0.001456    0.011894    0.123206  1.31949e-05
2740  0.00140642   0.0118449    0.269016  9.93122e-06
2750  0.00125738   0.0116975    0.147496  2.98464e-05
2760  0.000809497   0.0112543   -0.266094  1.49669e-05
2770  0.000958041   0.0114012   -0.387828  1.50497e-05
2780  0.000508504   0.0109564   -0.485082  2.3374e-05
2790  0.000490562   0.0109387   -0.290669  1.34663e-05
2800  0.000239177   0.0106899   -0.314982  2.51733e-05
2810  -1.29043e-05   0.0104405   -0.120356  1.3541e-05
2820  -3.16428e-05   0.0104219   -0.412403  -6.49377e-06
2830  0.000116971    0.010569   -0.266332  6.91132e-06
2840  -0.000169869   0.0102851   -0.241899  8.57882e-06
2850  -5.46052e-05   0.0103992   -0.193344  -1.15425e-05
2860  6.09816e-05   0.0105136   -0.485105  -1.32583e-05
2870  0.000210561   0.0106616   -0.631034  -9.92143e-06
2880  0.00025941   0.0107099   -0.509371  1.53669e-05
2890  -9.67777e-05   0.0103575   -0.241686  1.36908e-05
2900  -1.44063e-05    0.010439    -0.29036  -1.8406e-05
2910  0.000271343   0.0107217   -0.387567  -3.20064e-05
2920  0.000625722   0.0110724   -0.411975  -6.62596e-06
2930  0.000403862   0.0108529   -0.509181  -3.28498e-06
2940  0.000691422   0.0111374   -0.509181  -2.53919e-05
2950  0.000911701   0.0113554   -0.582122  -1.0124e-05
2960  0.000893902   0.0113378   -0.509158  1.71495e-05
2970  0.000568711    0.011016   -0.484844  3.08555e-05
2980  0.000276793   0.0107271   -0.484797  1.55348e-05
2990  0.000258015   0.0107085   -0.582098  1.88049e-06
3000  0.000239183   0.0106899   -0.606388  -1.0134e-05
3010  0.000460695   0.0109091   -0.436241  -8.42621e-06
3020  0.000407707   0.0108567    -0.31465  3.58474e-06
3030  0.000389001   0.0108382   -0.387543  7.04666e-06
3040  0.000266774   0.0107172    -0.50911  7.05894e-06
3050  0.000247822   0.0106985   -0.363205  -8.47873e-06
3060  0.000436348    0.010885   -0.387709  -2.40764e-05
3070  0.000729351   0.0111749   -0.290479  -2.06699e-05
3080  0.000849747   0.0112941   -0.387709  -1.90049e-05
3090  0.00110945   0.0115511   -0.436241  -1.03522e-05
3100  0.00105679    0.011499  -0.0957097  1.39847e-05
3110  0.000829756   0.0112743   -0.217301  2.97146e-05
3120  0.000462498   0.0109109   -0.509134  1.23188e-05
3130  0.000583379   0.0110305   -0.509134  -2.43536e-05
3140  0.00094957   0.0113929   -0.120071  -1.21409e-05
3150  0.000826198   0.0112708   0.0502423  3.5814e-06
3160  0.000877942    0.011322  -0.0714437  -8.69708e-06
3170  0.00100014   0.0114429   0.0500998  1.76821e-05
3180   0.0005243    0.010972  -0.0226506  -3.46065e-06
3190  0.00106935   0.0115114  -0.0715151  -2.63429e-05
3200  0.00105116   0.0114934   0.0257862  -1.71324e-06
3210  0.00110362   0.0115453  0.00152029  5.72705e-08
3220  0.00105001   0.0114923    0.220413  -1.76802e-05
3230  0.00145722   0.0118952    0.244584  -1.41473e-05
3240  0.00133296   0.0117722    0.195957  -2.86964e-09
3250  0.00145728   0.0118953  -0.0958523  -1.24502e-05
3260  0.00158196   0.0120186   -0.193154  -3.56963e-06
3270  0.00152867   0.0119659   -0.022912  1.24819e-05
3280  0.00133232   0.0117716   0.0987267  3.56427e-06
3290  0.00145739   0.0118954   0.0986792  3.59905e-06
3300  0.00126034   0.0117004    0.074437  1.97337e-05
3310  0.00106271   0.0115048    0.220413  1.79954e-05
3320  0.000900436   0.0113442  0.00133036  9.05416e-06
3330  0.000881629   0.0113256    0.268897  5.48791e-06
3340  0.000790678   0.0112356    0.195957  5.49873e-06
3350  0.000771655   0.0112168    0.196004  9.74105e-08
3360  0.000788729   0.0112337    0.171667  3.72177e-06
3370  0.000697219   0.0111432   0.0501473  -3.52766e-06
3380  0.000859283   0.0113035    0.025715  7.37583e-06
3390  0.000549703   0.0109972   -0.193059  3.28238e-05
3400  0.000202807   0.0106539   0.0502423  1.28851e-05
3410    0.000292   0.0107422    0.050171  -1.98785e-05
3420  0.000600377   0.0110473   -0.363514  5.65539e-06
3430  0.000178892   0.0106302   -0.120166  3.30637e-05
3440  -6.08978e-05    0.010393  0.00135406  2.03506e-05
3450  -0.000228119   0.0102275   -0.168912  1.49123e-05
3460  -0.000359143   0.0100978   -0.241899  5.76974e-06
3470  -0.000343514   0.0101133    -0.16903  -1.56543e-06
3480  -0.000327835   0.0101288   -0.144693  2.4243e-05
3490  -0.000828375  0.00963351    -0.33932  1.13518e-05
3500  -0.000554871  0.00990415   -0.266522  -3.3495e-06
3510  -0.000761385   0.0096998   -0.242184  1.69786e-05
3520  -0.000894443  0.00956813   -0.363847  1.51819e-05
3530  -0.00106502  0.00939933   -0.290788  -7.07085e-06
3540  -0.000753026  0.00970807   -0.266617  -1.63603e-05
3550  -0.000737815  0.00972312   -0.144978  2.20443e-06
3560  -0.000797115  0.00966444    -0.46122  3.02065e-05
3570  -0.00134194   0.0091253   -0.412403  2.8393e-05
3580  -0.00136498  0.00910251   -0.485343  4.34014e-07
3590  -0.00135062  0.00911671   -0.290811  -5.18843e-06
3600  -0.00126121   0.0092052   -0.461101  -2.39831e-05
3610  -0.000870963  0.00959136   -0.461077  -2.21529e-05
3620  -0.000818149  0.00964362   -0.217919  -2.41333e-05
3630  -0.000388298    0.010069   -0.193534  -2.79545e-05
3640  -0.000259058   0.0101969   -0.242208  -1.86149e-05
3650  -1.59988e-05   0.0104374    -0.19351  -7.30501e-06
3660  -0.000112958   0.0103414     -0.2178  -3.56258e-06
3670  5.52527e-05   0.0105079   -0.193558  2.14495e-06
3680  -0.000155857    0.010299   -0.217871  5.92621e-06
