Time   C(t)   
ps   
0           1           1  1.19601e-09   0.0334271
10    0.672483     0.68495     2.34037   0.0191303
20    0.617394    0.631958     2.75768  0.00483348
30    0.575814     0.59196     1.11106  0.00365758
40    0.544243    0.561591     2.79578  0.00289696
50    0.517874    0.536226    0.914513  0.00266108
60    0.491021    0.510395      2.4599  0.00243375
70    0.469199    0.489404    0.347975  0.00197793
80    0.451462    0.472342   -0.735176  0.00181387
90    0.432922    0.454507    -3.17817  0.00180059
100    0.415451    0.437701    -1.86504  0.00154178
110    0.402086    0.424845    -1.30387  0.00141252
120      0.3872    0.410526     1.60233  0.00130667
130    0.375953    0.399707     1.46015  0.00114765
140    0.364247    0.388447     0.19045  0.00121289
150    0.351695    0.376372   -0.278205   0.0012419
160    0.339409    0.364554   -0.232312  0.00108452
170    0.330005    0.355507  -0.0478184  0.000909835
180    0.321212     0.34705    0.139057  0.000860684
190    0.312791    0.338949     2.71937  0.000855184
200    0.304109    0.330597    0.606337  0.000779091
210    0.297209     0.32396     1.21451  0.000836787
220    0.287373    0.314498     3.27953  0.000774932
230     0.28171    0.309051     1.91657  0.000654718
240    0.274279    0.301903     2.76191  0.000682856
250    0.268053    0.295914      4.4956  0.000686769
260    0.260543     0.28869     4.40161  0.000707701
270    0.253899    0.282299     3.93222  0.000696921
280    0.246605    0.275282     1.58478  0.000661536
290    0.240669    0.269572      4.0711  0.000591788
300    0.234769    0.263897     1.72328  0.000659373
310    0.227481    0.256886     2.52172  0.000596656
320    0.222836    0.252418     1.25449  0.000423138
330    0.219018    0.248746      1.2528  0.000510365
340    0.212629    0.242599    0.971061  0.000548334
350    0.208052    0.238196     2.80061  0.000418615
360    0.204256    0.234546     1.58015  0.000454129
370    0.198969     0.22946     2.04862  0.000531739
380    0.193622    0.224316     1.06248  0.000451054
390    0.189948    0.220782    0.733571  0.000352857
400    0.186564    0.217527     0.49709  0.000452962
410    0.180889    0.212068    0.450279  0.000423952
420    0.178085    0.209371    0.590436  0.000268166
430    0.175525    0.206908    -1.61617  0.000405771
440     0.16997    0.201564   -0.255132  0.000431416
450    0.166897    0.198608    0.635368  0.000272647
460    0.164517    0.196319    0.259784  0.000365752
470    0.159582    0.191572   -0.396435  0.000413917
480    0.156239    0.188356   0.0247228  0.000294649
490    0.153689    0.185903   -0.351548  0.000347975
500    0.149279    0.181661   -0.304692  0.00033102
510    0.147069    0.179535   -0.540486  0.00026903
520    0.143899    0.176485     0.44501  0.000405376
530    0.138961    0.171736   -0.728233  0.000436339
540    0.135172    0.168091    -0.68156  0.00033398
550    0.132282    0.165311   -0.682018  0.00024391
560    0.130294    0.163398    -1.01097  0.000257096
570     0.12714    0.160364   -0.588076  0.000237344
580    0.125547    0.158832   -0.823962  0.000258191
590    0.121976    0.155397   -0.918041  0.000268784
600    0.120171    0.153661   -0.777426  0.00020602
610    0.117855    0.151434    -1.01198  0.000160715
620    0.116957    0.150569    -1.15274  0.000189115
630    0.114073    0.147795      -1.199  0.000209774
640    0.112761    0.146533    -2.41964  0.000197551
650    0.110122    0.143995     -3.2643  0.000210658
660    0.108548     0.14248    -2.79495  0.000249464
670    0.105133    0.139195      0.4893  0.000313796
680    0.102272    0.136443   -0.494913  0.00013798
690    0.102373    0.136541    -1.15319  0.000174282
700   0.0987865     0.13309   -0.683667  0.000246239
710   0.0974485    0.131803   -0.919416  0.000182729
720   0.0951319    0.129575    -1.24746  0.000206199
730   0.0933245    0.127836   -0.590688  9.86367e-05
740   0.0931592    0.127677   -0.263243  7.83354e-05
750   0.0917578    0.126329    0.581409  0.000209901
760   0.0889612    0.123639      1.1446  0.000199972
770   0.0877583    0.122482   -0.451265  8.42329e-05
780   0.0872765    0.122019    0.627257  0.000125831
790   0.0852417    0.120061   0.0637427  0.000157094
800   0.0841346    0.118996    0.298575  0.000131556
810   0.0826106     0.11753    0.204587  0.000160359
820   0.0809274    0.115911     1.28361  8.53803e-05
830    0.080903    0.115888     0.71987  9.34616e-05
840   0.0790582    0.114113    0.767689  0.00014823
850   0.0779384    0.113036      2.3625  0.000104293
860   0.0769724    0.112107     1.37737  0.000130621
870    0.075326    0.110523      1.7994  0.000151768
880    0.073937    0.109187     1.42427  0.00010244
890   0.0732772    0.108552     2.17457  0.000113166
900   0.0716737     0.10701     3.20688  0.000139566
910   0.0704858    0.105867     2.36241  2.70952e-05
920   0.0711318    0.106488      1.5636  8.24083e-05
930   0.0688377    0.104282     1.18885  0.000103463
940   0.0690625    0.104498     1.32905  1.17756e-06
950   0.0688141    0.104259    0.155897  4.85837e-05
960   0.0680908    0.103563    0.812666  0.000125161
970   0.0663109    0.101851     1.56319  9.63356e-05
980   0.0661641     0.10171     1.89087  9.66426e-05
990   0.0643781   0.0999917     1.23373  5.97082e-05
1000   0.0649699    0.100561      2.4531  4.1426e-05
1010   0.0635495   0.0991948     1.56145  0.00010507
1020   0.0628686   0.0985397     1.27972  0.000121275
1030    0.061124   0.0968616     1.84309  9.75598e-05
1040   0.0609174   0.0966628     1.74851  8.7221e-05
1050   0.0593796   0.0951836       2.171  0.000103329
1060   0.0588508   0.0946748    0.856818  8.76145e-05
1070   0.0576273    0.093498   -0.316332  0.000109128
1080   0.0566682   0.0925754    0.152965  3.45329e-05
1090   0.0569367   0.0928336  -0.0360187  8.28622e-05
1100    0.055011   0.0909812   -0.270254  0.000157946
1110   0.0537778   0.0897949    0.574993  3.49415e-05
1120   0.0543122    0.090309   -0.410916  2.70698e-05
1130   0.0532364   0.0892741     1.27857  9.15652e-05
1140   0.0524808   0.0885474     1.74759  8.37127e-05
1150   0.0515621   0.0876636    0.386697  0.00010276
1160   0.0504256   0.0865704   0.0584733  9.21905e-05
1170   0.0497183     0.08589    0.574673  7.89106e-05
1180   0.0488474   0.0850523   -0.645518  0.000133156
1190   0.0470552   0.0833282    -1.63088  0.000125289
1200   0.0463417   0.0826419   -0.693108  8.77008e-05
1210   0.0453012    0.081641   0.0575107  6.07593e-05
1220   0.0451265   0.0814729    0.292068  1.47678e-05
1230   0.0450058   0.0813569   -0.553088  5.01487e-05
1240   0.0441235   0.0805081   -0.974704  9.64956e-05
1250   0.0430759   0.0795004    -1.16277  0.000102158
1260   0.0420803   0.0785427   -0.505683  7.78425e-05
1270    0.041519   0.0780028    0.526808  -1.75586e-05
1280   0.0424315   0.0788805    0.244844  -2.29798e-05
1290   0.0419786   0.0784449      1.5113  4.80751e-05
1300     0.04147   0.0779556    0.479585  7.06222e-06
1310   0.0418374   0.0783091    0.713683  9.86997e-06
1320   0.0412726   0.0777658    0.478988  6.20419e-05
1330   0.0405965   0.0771154    0.385231  0.000117188
1340   0.0389288   0.0755112     1.88688  0.000117396
1350   0.0382486   0.0748569      1.4638  5.43235e-05
1360   0.0378424   0.0744661   -0.366122  6.8268e-05
1370   0.0368833   0.0735435     1.36976  7.11475e-05
1380   0.0364194   0.0730973    0.900559  7.68783e-05
1390   0.0353457   0.0720645     1.41676  -1.7138e-05
1400   0.0367622    0.073427  -0.0857628  -8.08176e-05
1410    0.036962   0.0736193     1.32185  -8.90102e-06
1420   0.0369402   0.0735983      1.5096  4.38835e-05
1430   0.0360844    0.072775     1.50955  5.50613e-05
1440    0.035839    0.072539     1.69767  -3.27472e-06
1450   0.0361499    0.072838     2.02539  -3.95069e-05
1460   0.0366291    0.073299     2.16609  6.65164e-05
1470   0.0348195   0.0715583     2.16692  9.44935e-05
1480   0.0347392   0.0714811     1.46256  -5.94426e-06
1490   0.0349384   0.0716727     2.63553  -5.93904e-06
1500    0.034858   0.0715954     2.16596  1.08594e-05
1510   0.0347212   0.0714638     1.69634  0.00011482
1520   0.0325616   0.0693864    0.711346  6.1533e-05
1530   0.0334906     0.07028       2.166  -5.0763e-05
1540   0.0335769    0.070363     1.03952  -1.14618e-05
1550   0.0337198   0.0705005     1.79046  6.47128e-05
1560   0.0322826    0.069118     1.36798  9.01969e-05
1570   0.0319159   0.0687652     1.18041  6.21871e-05
1580   0.0310389   0.0679216     1.03957  3.96483e-05
1590   0.0311229   0.0680024     0.71043  -4.24328e-05
1600   0.0318875   0.0687379     1.22622  -2.82943e-05
1610   0.0316888   0.0685468     1.60139  3.97932e-05
1620   0.0310917   0.0679724     1.31988  6.54792e-05
1630   0.0303792    0.067287      1.7426  1.14949e-05
1640   0.0308618   0.0677512     1.31979  3.0335e-06
1650   0.0303185   0.0672287     2.91561  2.01121e-05
1660   0.0304595   0.0673643     1.69501  2.02015e-05
1670   0.0299145     0.06684     1.74104  0.000108964
1680   0.0282803    0.065268     1.46027  9.76905e-05
1690   0.0279607   0.0649606     1.50713  -1.10512e-05
1700   0.0285013   0.0654806      2.1174  4.06986e-05
1710   0.0271467   0.0641776     3.00937  3.20583e-05
1720   0.0278601   0.0648638     4.13525  4.95399e-05
1730   0.0261559   0.0632245     4.32378  4.37402e-05
1740   0.0269853   0.0640223     4.18188  -1.95165e-05
1750   0.0265463      0.0636     3.38441  5.26292e-05
1760   0.0259327   0.0630098     2.44581  4.98499e-05
1770   0.0255493   0.0626409     2.07018  7.31691e-05
1780   0.0244694   0.0616021     2.49267  9.47546e-06
1790   0.0253598   0.0624586      2.4918  2.4142e-05
1800   0.0239865   0.0611377     2.82025  6.76871e-05
1810    0.024006   0.0611564     2.30378  5.62923e-05
1820   0.0228607   0.0600547     2.20974  8.25985e-05
1830    0.022354   0.0595673     2.63246  -1.81226e-06
1840   0.0228969   0.0600895     2.34962  7.01426e-06
1850   0.0222138   0.0594324     3.28918  4.20713e-05
1860   0.0220555   0.0592801      2.5851  -1.73636e-06
1870   0.0222485   0.0594658       2.303  1.00086e-05
1880   0.0218553   0.0590876     2.67776  7.75485e-05
1890   0.0206975   0.0579739     2.11507  0.00013945
1900   0.0190663   0.0564048     2.63154  3.37728e-05
1910   0.0200221   0.0573241     2.67766  7.4815e-06
1920   0.0189167   0.0562608     1.36408  4.5742e-05
1930   0.0191072   0.0564441     2.02085  -1.34446e-06
1940   0.0189436   0.0562867     1.64508  3.41363e-05
1950   0.0184245   0.0557874    0.096806  2.23482e-05
1960   0.0184966   0.0558567    0.331363  5.50716e-05
1970   0.0173231   0.0547278     1.08235  5.81005e-05
1980   0.0173346    0.054739    0.659679  4.93967e-05
1990   0.0163351   0.0537775     1.69231  2.86128e-05
2000   0.0167624   0.0541885    0.612593  -9.98033e-06
2010   0.0165347   0.0539695    0.706397  1.98085e-05
2020   0.0163662   0.0538074   -0.138301  1.98623e-05
2030   0.0161375   0.0535874  -0.0446794  -2.49828e-05
2040   0.0168658    0.054288    0.659083  1.69602e-05
2050   0.0157983   0.0532611  -0.0447714  3.78905e-05
2060    0.016108   0.0535591   -0.842979  -9.76492e-07
2070   0.0158178   0.0532799    -1.59328  5.01136e-05
2080   0.0151058   0.0525949    -1.59286  4.41916e-05
2090    0.014934   0.0524297   -0.326092  7.75013e-05
2100   0.0135557   0.0511039   -0.654637  5.04497e-05
2110    0.013925   0.0514591   -0.279649  -9.76538e-06
2120    0.013751   0.0512918   -0.373591  1.43882e-05
2130   0.0136372   0.0511823   -0.420814  -6.78287e-06
2140   0.0138867   0.0514223   -0.186028  -1.89126e-05
2150   0.0140155   0.0515462    -1.17166  1.74847e-05
2160    0.013537   0.0510859   -0.937151  3.57422e-05
2170   0.0133006   0.0508585      -1.031  -2.50641e-05
2180   0.0140383   0.0515681    -1.40649  -2.50671e-05
2190    0.013802   0.0513408    -0.79594  -1.6035e-05
2200    0.014359   0.0518766   -0.468358  2.67826e-05
2210   0.0132663   0.0508255   -0.983778  8.79772e-05
2220   0.0125994    0.050184   -0.186349  -2.8258e-05
2230   0.0138315   0.0513692   -0.514573  -6.19714e-05
2240   0.0138389   0.0513763    -1.36032  1.76971e-05
2250   0.0134775   0.0510287    -1.50016  5.40665e-06
2260   0.0137307   0.0512723    -0.79594  -4.69204e-05
2270   0.0144159   0.0519314   -0.327101  -6.90231e-06
2280   0.0138688   0.0514051     0.14215  -1.00929e-05
2290   0.0146178   0.0521256     1.12737  -6.26233e-05
2300   0.0151213   0.0526098   -0.796673  -4.73134e-05
2310   0.0155641   0.0530358   -0.609293  -6.29477e-05
2320   0.0163802   0.0538209    0.422738  -1.65056e-05
2330   0.0158942   0.0533534     0.32953  3.31211e-05
2340   0.0157178   0.0531837    0.235634  -1.65897e-05
2350    0.016226   0.0536725   -0.421592  -4.15325e-05
2360   0.0165484   0.0539827   -0.843942  6.44898e-05
2370   0.0149362   0.0524318   -0.937471  2.38949e-05
2380   0.0160705    0.053523    -1.54747  -3.22036e-05
2390   0.0155802   0.0530514    -1.59429  1.14831e-05
2400   0.0158409   0.0533021    -2.62714  3.98089e-05
2410   0.0147841   0.0522855    -2.39286  7.12486e-05
2420   0.0144159   0.0519313    -1.73605  1.16967e-05
2430   0.0145501   0.0520605    -2.67487  -2.91936e-05
2440   0.0149998    0.052493    -2.34646  -8.56863e-07
2450   0.0145673    0.052077    -2.25266  7.17375e-05
2460    0.013565   0.0511129    -1.87753  4.65865e-05
2470   0.0136355   0.0511807    -2.34632  3.41127e-05
2480   0.0128828   0.0504566    -2.15853  -3.91626e-06
2490   0.0137139    0.051256     -1.7365  -3.24031e-05
2500   0.0135308     0.05108   -0.986207  -4.84537e-05
2510   0.0146829   0.0521882    -1.87739  -4.5311e-05
2520   0.0144371   0.0519517    -1.83049  8.67969e-06
2530   0.0145094   0.0520212    -2.01833  -3.9171e-05
2540   0.0152205   0.0527053     -2.1125  1.51202e-05
2550   0.0142069   0.0517303    -1.40823  2.24225e-06
2560   0.0151756   0.0526622    -2.20635  -8.09706e-05
2570   0.0158264   0.0532881    -1.83095  -7.37808e-06
2580   0.0153232   0.0528041    -1.97175  2.14539e-05
2590   0.0153973   0.0528754     -1.6432  -3.63895e-05
2600    0.016051   0.0535042    -2.25362  -2.67784e-05
2610   0.0159328   0.0533906    -2.30034  1.18311e-05
2620   0.0158144   0.0532766     -1.9253  2.47907e-05
2630    0.015437   0.0529136    -1.97179  2.80728e-05
2640   0.0152529   0.0527365    -1.83164  2.8164e-05
2650   0.0148738   0.0523718    -1.87794  3.47201e-05
2660   0.0145585   0.0520685    -2.81654  -9.28296e-07
2670   0.0148923   0.0523896     -2.3002  4.14129e-05
2680   0.0137302   0.0512718    -2.62907  7.72683e-05
2690    0.013347   0.0509031    -3.84944  3.51196e-05
2700   0.0130278   0.0505961    -3.56821  2.86828e-05
2710   0.0127733   0.0503513    -2.81759  -2.03156e-05
2720   0.0134342    0.050987    -2.58322  2.55643e-05
2730    0.012262   0.0498594    -3.42805  0.000114094
2740   0.0111523    0.048792    -4.22585  6.8415e-05
2750   0.0108937   0.0485432    -3.38124  4.23418e-05
2760   0.0103054   0.0479774    -4.74159  3.58486e-05
2770   0.0101767   0.0478535    -3.75596  -5.30943e-05
2780   0.0113673   0.0489988    -3.75637  -1.3507e-05
2790   0.0104469   0.0481134    -4.46073  5.5782e-05
2800   0.0102517   0.0479256    -3.24017  -3.67707e-05
2810   0.0111823   0.0488208    -2.91254  1.96001e-05
2820  0.00985969   0.0475486    -2.30217  7.92949e-05
2830   0.0095964   0.0472953    -2.11447  2.96902e-05
2840  0.00926588   0.0469774    -1.50387  -1.35401e-05
2850   0.0098672   0.0475558    -1.55155  6.50496e-06
2860  0.00913578   0.0468522    -1.45798  3.08906e-06
2870  0.00980542   0.0474964    -1.69295  -6.84229e-06
2880  0.00927263   0.0469838    -2.16206  6.45481e-06
2890  0.00967632   0.0473722   -0.988681  2.33144e-05
2900  0.00880634   0.0465353   -0.331317  7.36851e-05
2910  0.00820262   0.0459546   -0.566561  -1.01966e-05
2920  0.00901027   0.0467315    -1.36477  -4.0448e-05
2930  0.00901158   0.0467327    -1.45844  -6.88122e-06
2940   0.0091479   0.0468639   -0.425763  -1.02696e-05
2950  0.00921697   0.0469303    -1.17652  -2.72214e-05
2960  0.00969233   0.0473876   -0.238521  3.71067e-05
2970  0.00847484   0.0462164    -0.19171  0.000111743
2980  0.00745748   0.0452378     0.65308  7.46965e-05
2990  0.00698091   0.0447794   -0.614609  3.75166e-05
3000  0.00670714    0.044516   -0.943658  3.08228e-05
3010  0.00636445   0.0441864   -0.661649  8.20959e-05
3020  0.00506523   0.0429366   -0.426817  8.22618e-05
3030  0.00471922   0.0426038   -0.145175  -1.32582e-05
3040  0.00533039   0.0431917  -0.00410154  -1.66551e-05
3050  0.00505232   0.0429242  -0.0986849  0.000106791
3060  0.00319457   0.0411371    0.511456  8.29269e-05
3070  0.00339378   0.0413288   -0.474223  4.88923e-05
3080  0.00221672   0.0401965    0.276625  5.58306e-05
3090  0.00227717   0.0402547  -0.00538443  3.19175e-05
3100  0.00157837   0.0395825   0.0411513  1.81271e-05
3110  0.00191462   0.0399059    0.463454  4.40752e-06
3120  0.00149022   0.0394977   0.0410597  2.16966e-05
3130  0.00148069   0.0394885   -0.615755  3.56794e-05
3140  0.000776635   0.0388112   -0.803226  4.61676e-05
3150  0.00055734   0.0386003  -0.0526072  -2.41502e-06
3160  0.000824936   0.0388577   -0.522087  1.1562e-05
3170  0.000326101   0.0383779   -0.568486  2.55099e-05
3180  0.000314738   0.0383669   0.0408766  2.91186e-05
3190  -0.000256272   0.0378177  -0.0534321  3.26662e-05
3200  -0.000338586   0.0377385   -0.944116  -2.28257e-06
3210  -0.000210621   0.0378616   -0.428421  6.79895e-05
3220  -0.00169838   0.0364304    -1.83631  5.04807e-05
3230  -0.00122023   0.0368904    -1.18005  2.25866e-05
3240  -0.00215011   0.0359959   -0.429063  6.84229e-05
3250  -0.00258869    0.035574    -1.69588  -9.08632e-06
3260  -0.00196838   0.0361707    -2.35361  -1.25743e-05
3270  -0.00233721   0.0358159    -1.93131  4.75728e-05
3280  -0.00291984   0.0352555    -2.21277  -1.61985e-05
3290  -0.00201324   0.0361276    -2.16618  -3.03571e-05
3300  -0.0023127   0.0358395    -3.05797  2.28708e-05
3310  -0.00247065   0.0356876     -2.5889  4.43428e-05
3320  -0.00319955   0.0349864    -3.48004  1.58649e-05
3330  -0.00278795   0.0353823    -3.05792  8.84563e-06
3340  -0.00337647   0.0348162    -2.54154  -1.2697e-05
3350  -0.00253401   0.0356266    -3.01102  -7.71977e-05
3360  -0.00183251   0.0363014    -3.38647  -4.86973e-05
3370  -0.00156006   0.0365635    -3.57463  3.7479e-05
3380  -0.00258209   0.0355804    -2.87063  6.27153e-05
3390  -0.00281437   0.0353569    -3.94989  2.6876e-05
3400  -0.00311961   0.0350633    -4.18477  4.14116e-05
3410  -0.0036426   0.0345602    -4.04411  5.96185e-05
3420  -0.00431198   0.0339163    -4.74805  3.80379e-05
3430  -0.00440336   0.0338284    -4.32589  -1.98974e-05
3440  -0.00391403   0.0342991    -3.95039  2.37236e-05
3450  -0.00487783    0.033372    -3.43442  3.82536e-05
3460  -0.00467911   0.0335632    -3.66893  -3.81434e-05
3470  -0.00411496   0.0341058    -3.85686  -5.64992e-05
3480  -0.00354912   0.0346501    -3.38748  -5.4454e-06
3490  -0.00400605   0.0342106    -4.56003  -5.54048e-06
3500  -0.00343831   0.0347567    -3.90335  -0.000111915
3510  -0.00176775   0.0363637    -4.09174  -0.000123203
3520  -0.000974244    0.037127    -5.03002  -1.68875e-05
3530    -0.00143   0.0366886    -5.26416  -6.12832e-05
3540  0.00025142    0.038306    -5.54617  -5.39194e-05
3550  -0.000351606    0.037726    -4.93621  -2.48472e-06
3560  0.000301114   0.0383538    -5.59312  -5.79608e-05
3570  0.000807609    0.038841    -4.84254  -2.84704e-05
3580  0.000870521   0.0389016    -4.79564  7.17348e-05
3590  -0.000627087    0.037461    -6.06195  5.32295e-05
3600  -0.000194069   0.0378775    -4.18477  -2.84595e-05
3610  -5.78969e-05   0.0380085    -4.41997  -3.60407e-05
3620  0.000526746   0.0385709    -3.95094  -1.74213e-05
3630  0.00029053   0.0383436    -3.48178  -6.62267e-05
3640  0.00185128    0.039845    -3.76379  -0.000115059
3650  0.00259172   0.0405572    -3.57628  -0.000111727
3660  0.00408583   0.0419945    -3.99904  -5.55777e-05
3670  0.00370327   0.0416265    -3.10712  3.45493e-05
3680  0.00339484   0.0413298    -4.28077  -3.08267e-06
3690  0.00376492   0.0416858    -3.99968  3.85502e-05
