Time   C(t)   
ps   
0           1           1  1.53027e-09   0.0596085
10    0.418994    0.453253     -8.4206   0.0318159
20    0.363682    0.401202      5.0828  0.00402326
30    0.338529    0.377533   -0.659599  0.00236845
40    0.316313    0.356627     13.2652   0.0017539
50    0.303451    0.344523      7.5244  0.00158688
60    0.284575     0.32676      1.3726  0.00143996
70    0.274652    0.317422   -0.682401  0.000886236
80    0.266851    0.310081      3.0098  0.000566445
90    0.263323    0.306761      1.3626  0.00114746
100    0.243901    0.288485      -2.322  0.00142833
110    0.234756    0.279879     -1.9174  0.000635818
120    0.231185    0.276518      -1.099  0.000206734
130    0.230621    0.275988     -2.3348  0.000638403
140    0.218417    0.264503     -7.2496  0.00053123
150    0.219997     0.26599     -2.3356  0.000511406
160    0.208189    0.254878      8.3072  0.000100966
170    0.217978     0.26409       2.165  0.000102277
180    0.206143    0.252953    0.524599  0.000859652
190    0.200785     0.24791   -0.703201  0.000297873
200    0.200186    0.247347        5.02  0.000320435
210    0.194376    0.241879      2.9742  0.000538138
220    0.189423    0.237219       2.564  0.000234732
230    0.189681    0.237462     -6.4468  0.000148373
240    0.186456    0.234426     -5.2194  0.000693458
250    0.175812     0.22441      5.0228  0.000432659
260    0.177803    0.226283     -0.7156  8.46975e-05
270    0.174118    0.222816      1.7352  0.000565626
280     0.16649    0.215638      2.5592  0.000479043
290    0.164537      0.2138     -1.9474  0.000392681
300    0.158636    0.208247      3.3792  0.000502948
310    0.154478    0.204334      5.4254  0.000218648
320    0.154263    0.204132      1.7364  -4.44338e-05
330    0.155367    0.205171     -7.6894  -0.000176464
340    0.157793    0.207453      1.3262  0.000109556
350    0.153176    0.203109     -3.1804  0.000396023
360    0.149872         0.2      1.7332  -0.000221043
370    0.157597    0.207269      3.3652  0.000220925
380    0.145454    0.195842     -1.1354   0.0007069
390    0.143459    0.193965      -2.364  -0.000176652
400    0.148987    0.199167      5.8216  0.000155798
410    0.140343    0.191032   0.0931988  0.000621276
420    0.136561    0.187474      0.9052  2.32093e-05
430    0.139879    0.190596      3.3604  1.38804e-06
440    0.136533    0.187448      -1.145  0.000290353
450    0.134071    0.185131   0.0839998  0.000446963
460    0.127594    0.179036      4.1796  4.62614e-05
470    0.133146     0.18426      3.7706  -0.000265559
480    0.132905    0.184034   0.0820003  1.76206e-06
490    0.133111    0.184227   0.0844003  0.000113648
500    0.130632    0.181895      2.1294  9.13456e-05
510    0.131284    0.182508      -6.476  4.68634e-05
520    0.129695    0.181013       3.763  0.000114179
530       0.129    0.180359       7.037  0.000316663
540    0.123362    0.175053      2.9438  0.00045201
550     0.11996    0.171852      1.3046  0.000408059
560    0.115201    0.167373       4.581  -4.19054e-05
570    0.120798    0.172641      1.3002  -8.65638e-05
580    0.116932    0.169002     -1.5664  0.00031929
590    0.114413    0.166631     -3.6162  -0.000132155
600    0.119575    0.171489   0.0680005  0.000230117
610     0.10981      0.1623     -6.4816  0.000501706
620    0.109541    0.162047      2.1174  0.000276462
630    0.104281    0.157097     -3.2064   -1.84e-05
640    0.109909    0.162393      2.1218  -0.000222431
650     0.10873    0.161283      -4.439  -4.12326e-05
660    0.110734    0.163169      8.6666  0.000232203
670    0.104086    0.156913    0.478601  0.000391867
680    0.102896    0.155794     -3.2092  0.000164717
690    0.100791    0.153813      5.8028  9.64653e-05
700    0.100967    0.153978      7.4388  5.28321e-06
710    0.100686    0.153714      2.9322  0.000302996
720   0.0949071    0.148276      8.6694  0.00041799
730   0.0923258    0.145847    0.475799  0.000189549
740   0.0911161    0.144708   -0.345802  0.000465751
750   0.0830108    0.137081      4.9804  -0.000154652
760   0.0942091    0.147619       1.285  -0.000292098
770   0.0888527    0.142579     -6.4956  0.000328758
780    0.087634    0.141432      5.7968  5.27769e-05
790   0.0877972    0.141585      5.3842  0.000191575
800   0.0838025    0.137826      3.3368  0.000353651
810   0.0807242    0.134929      3.3352  0.000609138
820   0.0716197    0.126362      4.5622  0.000308841
830   0.0745474    0.129117      9.0704  -0.000409095
840   0.0798016    0.134061       3.741  0.000194053
850   0.0706663    0.125464   -0.766001  0.000728507
860   0.0652315     0.12035     -4.8584  0.000194902
870   0.0667683    0.121796      3.7442  -0.000247063
880   0.0701727       0.125      2.9198  0.000125771
890   0.0642529    0.119429     16.4436  0.000475862
900   0.0606555    0.116044     -2.4036  9.41828e-06
910   0.0640645    0.119252      4.5598  9.82676e-06
920    0.060459    0.115859      2.9246  3.28921e-05
930   0.0634066    0.118633      7.0206  8.02428e-05
940   0.0588541    0.114349      4.9692  0.00026788
950    0.058049    0.113591     -4.4498  -1.34418e-05
960    0.059123    0.114602      -1.173  -6.04404e-05
970   0.0592578    0.114729      4.5614  -1.35005e-05
980    0.059393    0.114856       2.919  0.000340294
990    0.052452    0.108324      2.9242  0.000529576
1000   0.0488015    0.104889      2.9258  0.000341811
1010   0.0456157    0.101891      -4.854  -0.000438424
1020   0.0575699     0.11314     -0.3606  3.53165e-05
1030   0.0449094    0.101226      5.3794  0.000555863
1040   0.0464527    0.102679      -7.727  -0.000201992
1050   0.0489492    0.105028     -0.7712  0.000201753
1060   0.0424176   0.0988815     -2.4096  0.000463497
1070   0.0396793   0.0963046       -5.68  0.000417097
1080   0.0340757   0.0910314     -5.6816  0.000203194
1090   0.0356154   0.0924804     -3.6322  -0.00020191
1100   0.0381138   0.0948315      4.9648   0.0001802
1110   0.0320114   0.0890889      9.0676  6.04533e-05
1120   0.0369048   0.0936937      8.6534  -0.000465928
1130     0.04133    0.097858    0.459799  0.000276615
1140   0.0313725   0.0884876     -7.7282  0.000372489
1150   0.0338802   0.0908475      3.3308  -0.000106805
1160   0.0335086   0.0904977     -1.9958  0.000374175
1170   0.0263967   0.0838052     -6.5004  0.000278255
1180   0.0279435   0.0852608     -2.8178  -0.000275473
1190   0.0319062   0.0889898   0.0483989  0.00025537
1200   0.0228361   0.0804546      3.7382  0.000617893
1210   0.0195483   0.0773607    0.458998  -0.000251802
1220   0.0278721   0.0851936      5.3738  -0.000179012
1230   0.0231286   0.0807298      3.3288  0.000232282
1240   0.0232265   0.0808219     -1.1758  3.87752e-05
1250    0.022353        0.08     -1.9986  -3.41443e-05
1260   0.0239094   0.0814646     -2.8174  -0.000107118
1270   0.0244954    0.082016      1.2754  0.000233802
1280   0.0192333   0.0770642     -3.2248  0.000307205
1290   0.0183513   0.0762342     10.2922  -0.000180417
1300   0.0228416   0.0804598       9.068  -0.000253894
1310   0.0234292   0.0810127      4.5562  0.000259489
1320   0.0176519    0.075576      3.3264  0.000357774
1330   0.0162737   0.0742791       2.508  0.000162518
1340   0.0144015   0.0725173       9.064  0.000162865
1350   0.0130164   0.0712139      7.8358  0.000163272
1360   0.0111361   0.0694444     12.3392  0.000163621
1370  0.00974397   0.0681344      9.4714  0.000311962
1380  0.00489684   0.0635731      6.6052  0.000115012
1390  0.00744373   0.0659698       11.52  -0.000230271
1400  0.00950226    0.067907      9.8836  6.6065e-05
1410  0.00612243   0.0647264   -0.767199  0.000264066
1420  0.00422093   0.0629371      6.1974  0.000264769
1430  0.000827043   0.0597433      9.8776  0.000290128
1440  -0.00158163   0.0574766      3.7358  9.20047e-05
1450  -0.00101305   0.0580117       2.099  1.77345e-05
1460  -0.00193632   0.0571429      4.5538  0.000117352
1470  -0.00336009   0.0558031      4.5602  4.2764e-05
1480  -0.0027916    0.056338     11.9246  -8.1891e-05
1490  -0.00172227   0.0573443     13.5666  9.29705e-05
1500  -0.00465101   0.0545883      8.6502  0.00036832
1510  -0.00908867   0.0504123       7.011  -6.84029e-06
1520  -0.0045142    0.054717      2.5016  -0.000583448
1530   0.0025803   0.0613932     -1.1886  9.36151e-05
1540  -0.00638651   0.0529551      7.4148  0.00059592
1550  -0.0093381   0.0501775       4.549  -6.66687e-06
1560  -0.00625317   0.0530806      9.0508  -0.000233228
1570  -0.00467355    0.054567     12.7418  0.000144748
1580  -0.00914814   0.0503563      6.1878  -3.21657e-05
1590  -0.00403024   0.0551724      10.688  -0.000132878
1600  -0.00649058   0.0528571       7.005  0.000246328
1610  -0.00895679   0.0505364      4.9548  -0.000184235
1620  -0.00280588   0.0563246     10.6896  -8.25921e-05
1630  -0.00730495   0.0520908      7.8246  -5.80055e-05
1640  -0.00164577   0.0574163     10.6892  -0.000133894
1650  -0.00462706   0.0546108     -2.0066  -5.82824e-05
1660  -0.000480125   0.0585132      5.3618  -0.000109022
1670  -0.00244661   0.0566627       10.69  6.91613e-05
1680  -0.00186335   0.0572115     11.9198  0.000248508
1690  -0.00741677   0.0519856      7.8234  9.50991e-05
1700  -0.00376533   0.0554217     11.0994  -0.000211761
1710  -0.00318155   0.0559711      11.103  -0.000109786
1720  -0.00156962   0.0574879      3.7278  0.000275499
1730  -0.00869154    0.050786       6.594  9.55252e-05
1740  -0.00348012   0.0556901      7.8254  -0.000289918
1750  -0.00289318   0.0562424     14.7864  -7.18171e-06
1760  -0.00333649   0.0558253     10.2762  -5.89106e-05
1770  -0.00171497   0.0573512     10.6896  0.000173771
1780  -0.00681191   0.0525548     10.2798  7.02383e-05
1790  -0.00311973   0.0560292     15.6048  1.91079e-05
1800  -0.00719406   0.0521951      7.8274  0.000407932
1810  -0.0112784   0.0483517      9.4638  1.92019e-05
1820  -0.0075781   0.0518338     13.5586  -0.000162371
1830  -0.00803097   0.0514076     18.0632  -0.000215115
1840  -0.0032758   0.0558824     13.5542  -5.88582e-05
1850  -0.0068538   0.0525153     10.6904  0.000671555
1860  -0.0167069   0.0432432      13.559  -0.000137572
1870  -0.00410236   0.0551045      11.095  -0.000398268
1880  -0.00874154   0.0507389      7.8178  0.000333459
1890  -0.0107715   0.0488286       9.048  -3.28953e-05
1900  -0.00808364    0.051358      6.1806  -0.000242852
1910  -0.00591449   0.0533993      4.9512  -0.000164575
1920  -0.00479213   0.0544555      4.5426  4.56406e-05
1930  -0.0068273   0.0525403     10.6876  7.19271e-05
1940  -0.00623067   0.0531017      4.1304  0.000283481
1950  -0.0124969    0.047205     14.7896  -3.34531e-05
1960  -0.00556161   0.0537313     10.2762  -0.000297387
1970  -0.00654918    0.052802     11.5032  0.000204882
1980  -0.00965925   0.0498753      6.5868  -3.35382e-05
1990  -0.00587842   0.0534332      8.2264  -0.000219157
2000  -0.00527611       0.054      2.9014  9.92927e-05
2010  -0.00786427   0.0515645      4.1288  4.60747e-05
2020  -0.00619761   0.0531328      4.1312  0.000126457
2030  -0.0103934   0.0491845      4.9484  7.30072e-05
2040  -0.00765775   0.0517588      9.8628  -6.00412e-05
2050  -0.00919258   0.0503145       7.813  0.000100142
2060  -0.00966059   0.0498741      9.4566  -3.3543e-05
2070  -0.00852172   0.0509458      8.6358  -0.0001677
2080  -0.00630658   0.0530303     11.5008  -0.000168057
2090  -0.00516057   0.0541087      10.682  0.000181186
2100  -0.00993029   0.0496203     10.2698  0.000235145
2110  -0.00986347   0.0496831      8.6334  -6.69085e-06
2120  -0.00979648   0.0497462     12.7286  2.02965e-05
2130  -0.0102694   0.0493011      7.4052  -0.000277123
2140  -0.00425402   0.0549618      8.2232  0.000128697
2150  -0.0128433    0.046879     10.6812  0.000426289
2160  -0.0127798   0.0469388     12.3176  -0.000114936
2170  -0.0105446   0.0490422       7.402  4.79776e-05
2180  -0.0137393   0.0460358      9.0444  0.00010218
2190  -0.0125882   0.0471191     11.9102  0.000157214
2200  -0.0168836   0.0430769      3.3048  0.000211833
2210  -0.0168249   0.0431322     10.6804  -8.78369e-05
2220  -0.0151269   0.0447301      8.2204  0.000185571
2230  -0.0205363   0.0396396     13.1396  2.12631e-05
2240  -0.0155521   0.0443299        9.86  -0.00036194
2250  -0.0132975   0.0464516      8.2192  -6.10044e-05
2260  -0.0143321    0.045478     10.6788  -8.88689e-05
2270  -0.0115201   0.0481242      7.8122  -0.00011638
2280  -0.0120045   0.0476684      7.8066  4.84978e-05
2290  -0.0124901   0.0472114      4.9416  -6.17819e-05
2300  -0.0107688   0.0488312      1.6648  -3.41611e-05
2310  -0.0118068   0.0478544      8.2172  -3.44308e-05
2320  -0.0100802   0.0494792      4.5298  2.10794e-05
2330  -0.0122284   0.0474576       8.629  -9.01008e-05
2340  -0.00827819   0.0511749      1.2554  4.89723e-05
2350  -0.0132079   0.0465359      2.8918  0.000104155
2360  -0.0103613   0.0492147      9.0368  -6.48201e-06
2370  -0.0130782   0.0466579      4.5282  0.000216268
2380  -0.0146867   0.0451443       6.987  -3.44428e-05
2390  -0.0123894   0.0473062       2.073  -3.42779e-05
2400  -0.0140011   0.0457895      6.9894  -0.000230636
2410  -0.00777666   0.0516469      8.2136  -0.000118572
2420  -0.0116297   0.0480211       4.938  4.8901e-05
2430  -0.00875468   0.0507266     -1.6172   0.0001057
2440  -0.0137437   0.0460317   -0.792802  0.00016176
2450  -0.0119899   0.0476821       8.216  -0.000147424
2460  -0.0107952   0.0488064      3.3032  -9.14026e-05
2470  -0.0101618   0.0494024      4.1208  -6.34216e-05
2480  -0.00952676        0.05      9.8556  -0.00023339
2490  -0.00549403   0.0537949    0.845599  -0.000262123
2500  -0.0042843   0.0549333      3.2992  0.000105869
2510  -0.00761141   0.0518024       8.627  0.000247916
2520  -0.00924263   0.0502674      3.3016  -7.36974e-06
2530  -0.00746401   0.0519411      3.7122  -0.000605441
2540  0.00286619   0.0616622      9.0348  -0.000207103
2550  -0.00332195   0.0558389      6.9886  0.000391118
2560  -0.00495617   0.0543011     -0.7944  2.06182e-05
2570  -0.00373432   0.0554509    0.844799  -6.50627e-05
2580  -0.00365492   0.0555256      3.3012  -0.000151361
2590  -0.000707102   0.0582996      2.4828  -9.41363e-05
2600  -0.00177219   0.0572973     -1.6112  -0.000382255
2610  0.00693801   0.0654939      -6.939  -0.000238636
2620  0.00300052   0.0617886     -1.6128  0.000336606
2630  0.000205881   0.0591588     -2.8398  -6.66759e-05
2640  0.00433404   0.0630435     -1.6096  -0.000210965
2650  0.00442517   0.0631293      1.2574  -0.000182858
2660   0.0079912    0.066485   0.0287983  -0.000183121
2670  0.00808759   0.0665757      0.4386  -9.67565e-05
2680  0.00992633    0.068306   -0.379402  -0.000213197
2690   0.0123515   0.0705882     -4.0652  -9.94229e-06
2700   0.0101252   0.0684932      2.0786  -1.02895e-05
2710   0.0125573   0.0707819     -0.3794  -0.000155968
2720   0.0132445   0.0714286      -1.199  -0.000156517
2730   0.0156877   0.0737277      -0.792  -9.82771e-05
2740   0.0152101   0.0732782     -6.1134  0.000135767
2750   0.0129723   0.0711724     -5.2942  -0.000216243
2760   0.0195349   0.0773481     -5.2962  -1.04609e-05
2770   0.0131815   0.0713693     -2.8354  0.000400727
2780   0.0115204   0.0698061     -2.0134  -3.99957e-05
2790   0.0139815   0.0721221      -0.377  -0.000275967
2800   0.0170398       0.075     -5.2946  -0.000276694
2810   0.0195153   0.0773296     -1.1982  -0.000455108
2820   0.0261419   0.0835655      -4.477  -1.14617e-05
2830   0.0197446   0.0775453     -2.0162  0.000314114
2840   0.0198597   0.0776536   0.0344004  0.000107375
2850   0.0175971   0.0755245     -3.2436  0.000107508
2860   0.0177095   0.0756303     -4.8828  0.000137784
2870   0.0148414   0.0729313     -6.9302  -0.000130688
2880   0.0203232   0.0780899     -2.0154  -0.000369603
2890   0.0222335   0.0798875     -6.5236  -0.000221226
2900   0.0247478   0.0822535      -7.753  -7.19267e-05
2910    0.023672   0.0812412     -4.4726  0.000467952
2920   0.0153887   0.0734463      -9.389  7.79725e-05
2930   0.0221125   0.0797737       -8.98  -0.000613128
2940   0.0276513   0.0849858      -8.573  -1.2025e-05
2950    0.022353        0.08     -8.9792  0.000289063
2960     0.02187   0.0795455     -11.847  7.86034e-05
2970    0.020781   0.0785206      -8.982  -0.000133141
2980   0.0245328   0.0820513     -2.4276  7.90524e-05
2990   0.0191999   0.0770328     -4.8844  0.000169714
3000   0.0211386   0.0788571     -9.3898  -0.000437384
3010   0.0279476   0.0852647     -4.0644  -0.000346942
3020   0.0280774   0.0853868     -1.2006  4.79852e-05
3030   0.0269879   0.0843616     -5.2938  0.000322862
3040   0.0216202   0.0793104      -5.706  0.000568124
3050   0.0156254   0.0736691    0.852799  -0.000165265
3060   0.0249255   0.0824207      2.0782  -0.000195307
3070   0.0195315   0.0773449     -3.2456  0.000202331
3080   0.0208788   0.0786127   0.0307987  1.88621e-05
3090   0.0191543   0.0769899     -2.4268  -0.000381727
3100   0.0285134   0.0857971      1.2562  -7.35672e-05
3110   0.0206256   0.0783745     -4.8864  0.000604573
3120   0.0164219   0.0744186     -2.0178  0.000266302
3130   0.0152996   0.0733625       0.439  -0.000228397
3140   0.0209899   0.0787172    0.847998  -0.000135485
3150   0.0180093   0.0759124     -4.0664  -0.000136518
3160   0.0237202   0.0812866     -6.9346  -0.00026075
3170   0.0232243   0.0808199     -7.7538  0.000236639
3180   0.0189874   0.0768329     -8.5698  -0.000106239
3190   0.0253491   0.0828194     -5.2954  -4.3262e-05
3200   0.0198527   0.0776471     -6.1114  1.83399e-05
3210   0.0249823   0.0824742     -8.9824  -4.35174e-05
3220    0.020723   0.0784661     -4.8836  -0.000169912
3230   0.0283805   0.0856721     -4.8844  -0.000263851
3240       0.026    0.083432     -5.7044  0.000143942
3250   0.0255017    0.082963     -6.9326  0.000270642
3260   0.0205872   0.0783383   -0.376601   0.0001448
3270   0.0226057   0.0802378     -4.8824  -0.000107269
3280   0.0227326   0.0803572     -5.2938  -4.43807e-05
3290   0.0234933    0.081073      -7.342  -0.000298235
3300   0.0286973   0.0859702     -7.7542  5.06609e-05
3310   0.0224801   0.0801196    0.440999  4.9955e-05
3320   0.0276982     0.08503     -1.6076  -0.000363269
3330   0.0297455   0.0869565      -6.933  -1.35661e-05
3340   0.0279695   0.0852853     -4.0652  0.000337661
3350   0.0229922   0.0806015     -5.7032  0.000146389
3360   0.0250417   0.0825302     -8.5706  -0.000173199
3370   0.0264562   0.0838612     -4.8856  -0.000141665
3380    0.027875   0.0851964      -4.475  -1.3483e-05
3390   0.0267259    0.084115     -6.5224  -0.000110323
3400   0.0300815   0.0872727     -4.8864  -4.58138e-05
3410   0.0276422   0.0849772     -4.4766  -1.40942e-05
3420   0.0303634    0.087538     -6.1142  -0.000272536
3430   0.0330929   0.0901066     -4.0656  -4.65783e-05
3440   0.0312949   0.0884146     -2.0182  0.000180068
3450   0.0294915   0.0867176     -4.0688  -4.68632e-05
3460   0.0322322   0.0892966     -4.0688  -4.66594e-05
3470   0.0304247   0.0875957     -9.8024  8.32359e-05
3480   0.0305675   0.0877301     -5.2962  -0.000210181
3490   0.0346283   0.0915515      -4.072  0.000116446
3500   0.0282386   0.0855385   0.0299988  0.000148747
3510   0.0316534   0.0887519   -0.792402  -7.96236e-05
3520    0.029831   0.0870371      1.2566  0.000281063
3530   0.0260321   0.0834621    0.439799  0.000512078
3540   0.0195895   0.0773994     -2.8406  -0.000112603
3550   0.0282842   0.0855814     -2.4312  -0.000408794
3560   0.0277654   0.0850932     -7.7574  0.000415548
3570   0.0199732   0.0777605     -4.8904  0.000217649
3580   0.0234124   0.0809969       -4.89  -0.000211829
3590   0.0242098   0.0817473      -9.395   0.0001858
3600   0.0196964      0.0775     -1.6128  5.29252e-05
3610   0.0231513   0.0807512     -7.7566  -0.000146159
3620   0.0226196   0.0802508    -10.6252  -1.34715e-05
3630   0.0234207   0.0810047    -11.4448  2.0009e-05
3640   0.0222194   0.0798742     -12.673  0.000287671
3650   0.0176673   0.0755906     -10.215  0.000154224
3660   0.0191349   0.0769716    -11.0338  -0.000449169
3670   0.0266507   0.0840442     -8.5802  -0.000349227
3680   0.0261194   0.0835443     -13.082  -1.4154e-05
3690   0.0269338   0.0843106     -7.7574  0.000323261
3700   0.0196542   0.0774603     -5.7096  0.000526378
3710   0.0164062   0.0744038     -9.3938  -0.000419219
3720   0.0280386   0.0853503     -1.2066  -8.04024e-05
3730   0.0180143   0.0759171     -7.7594  0.00039292
3740   0.0201802   0.0779553     -8.5774  0.000225126
3750   0.0135117     0.07168     -9.8064  0.000259201
3760   0.0149962   0.0730769     -7.7606  -0.000148682
3770   0.0164854   0.0744783     -3.6606  -0.00018333
3780   0.0186628   0.0765273     -8.5762   0.0001926
3790   0.0126334   0.0708535    -10.2134  0.000398235
3800   0.0106981   0.0690323     -9.8056  -4.64979e-05
3810   0.0135634   0.0717286      -4.892  -8.06502e-05
3820   0.0123111   0.0705502     -4.8896  0.000263214
3830  0.00829908   0.0667747     -8.1656  -4.66725e-05
3840   0.0132445   0.0714286      -5.712  -0.000218886
3850   0.0126768   0.0708943     -7.3508  -1.23622e-05
3860   0.0134918   0.0716613     -8.9888  -0.000150974
3870   0.0156963   0.0737358     -6.9414  0.000265376
3880  0.00818427   0.0666667    -11.4432  0.000335019
3890  0.00899589   0.0674305     -6.1214  0.000301959
3900  0.00214509   0.0609836     -4.8896  0.000127828
3910  0.00643933   0.0650246    -10.6248  -0.000150484
3920  0.00515477   0.0638158     -8.5782  0.000163684
3930  0.00316564    0.061944    -13.9028  2.38825e-05
3940  0.00467712   0.0633663     -6.1222  -4.601e-05
3950  0.00408584   0.0628099      -9.808  -1.11481e-05
3960  0.00490008   0.0635762     -10.217  0.000129914
3970  0.00148757   0.0603649     -4.4818  9.46901e-05
3980  0.00300628    0.061794     -2.8422  -0.000258214
3990  0.00665185   0.0652246     -2.4332  -8.17883e-05
4000  0.00464205   0.0633333     -3.6642  0.000414202
4010  -0.00163219   0.0574291      -1.614  0.000379691
4020  -0.00295177   0.0561873     -6.1206  6.09781e-05
4030  -0.00285176   0.0562814     -8.5782  -0.000116997
4040  -0.000611816   0.0583893     -5.3022  -8.14912e-05
4050  -0.00122193   0.0578151       -5.71  -8.2006e-05
4060   0.0010283   0.0599327    -10.6284  6.13191e-05
4070  -0.00244832   0.0566611     -6.1226  9.69438e-05
4080  -0.000910572   0.0581081     -6.5324  -0.000154034
4090  0.000632357   0.0595601     -2.8486  -1.04645e-05
4100  -0.000701283   0.0583051     -2.0286  0.000314005
4110  -0.00564774   0.0536503      -7.761  0.000242476
4120  -0.00555081   0.0537415     -8.5814  -9.71153e-06
4130  -0.00545351   0.0538331     -6.1242  9.90588e-05
4140  -0.00753198   0.0518772     -8.5806  0.000317193
4150  -0.0117974   0.0478633     -7.3544  0.000136131
4160  -0.0102546   0.0493151     -6.1258  -0.000154543
4170  -0.0087065   0.0507719    -10.6336  -9.00468e-06
4180  -0.0100745   0.0494846      -9.403  0.000173616
4190  -0.0121788   0.0475043     -8.5834  -8.2353e-05
4200  -0.00842744   0.0510345      -6.536  -0.000228959
4210  -0.00759963   0.0518135      -6.947  0.00043186
4220  -0.0170646   0.0429066      -9.812  0.000358798
4230  -0.0147756   0.0450607      -5.307  -0.000118609
4240  -0.0146925   0.0451389       -2.44  -0.000119213
4250  -0.0123913   0.0473044     -4.8992  2.86688e-05
4260  -0.0152658   0.0445993     -7.3544  0.000213773
4270  -0.0166668    0.043281     -2.8514  -8.28519e-06
4280  -0.0151001   0.0447553     -5.7176  6.63871e-05
4290  -0.0179945   0.0420315     -4.4906  0.000178087
4300  -0.0186619   0.0414035     -5.7168  2.95019e-05
4310  -0.0185846   0.0414763      -9.812  0.000141924
4320  -0.0215004   0.0387324     -5.7176  2.97102e-05
4330  -0.0191788   0.0409171     -1.2126  6.7828e-05
4340  -0.0228569   0.0374558      -6.536  0.000218002
4350  -0.0235388   0.0368142     -9.8128  0.000105992
4360  -0.0249768    0.035461      -8.585  0.00029505
4370  -0.0294398   0.0312611       -3.26  -6.70524e-06
4380  -0.0248427   0.0355872     -9.4054  -0.000157459
4390  -0.0262906   0.0342246      -7.767  6.91505e-05
4400  -0.0262257   0.0342857     -8.5854  0.000107553
4410  -0.0284417   0.0322004    -11.0414  0.000107736
4420  -0.0283804   0.0322581     -7.3568  -0.000235082
4430  -0.0237401   0.0366248    -11.4516  0.000146735
4440  -0.0313151   0.0294964     -8.9956  0.000184458
4450  -0.0274292   0.0331532    -13.0916  -0.000312563
4460  -0.0250638   0.0353791     -8.1776  -6.37015e-06
4470  -0.0273018   0.0332731      -5.311   0.0001857
4480  -0.0287778   0.0318841      -6.129  0.000263587
4490  -0.0325736   0.0283122     -8.5858  -8.3445e-05
4500  -0.0271089   0.0334546     -5.3118  -0.000353894
4510  -0.0254957   0.0349727    -10.6372  3.22962e-05
4520  -0.0277548   0.0328467     -4.4922  -4.56484e-05
4530  -0.0245827   0.0358318     -2.4452  -8.42446e-05
4540    -0.02607   0.0344323     -4.0852  0.000421977
4550  -0.0330222   0.0278899     -5.3134  0.000501165
4560  -0.0360932       0.025     -4.0824  -4.45982e-05
4570  -0.0321303   0.0287293     -5.7232  -0.000240177
4580  -0.0312897   0.0295203     -3.2652  0.000151497
4590  -0.0351602    0.025878     -7.3592  7.29067e-05
4600  -0.0327478   0.0281482     -2.0358  -0.000320548
4610  -0.0287493    0.031911   0.0131987  -5.55981e-06
4620  -0.0326366   0.0282528     -4.9012  0.000112418
4630  -0.0309976   0.0297952     -4.0808  3.40501e-05
4640  -0.0333176    0.027612     -2.0322  -5.91837e-06
4650  -0.0308792   0.0299066     -1.2158  0.000153705
4660  -0.0363917   0.0247191     -2.0306  0.000153537
4670    -0.03395   0.0270169      1.6536  -0.000324535
4680   -0.029901   0.0308271     -3.6746  0.000314792
4690  -0.0402458   0.0210923     -3.6706  0.000354723
4700  -0.0369955    0.024151     -2.0322   -0.000406
4710  -0.0321258   0.0287335      -1.626  -0.000165869
4720  -0.0336781   0.0272727     -1.6256  0.000195851
4730  -0.0360428   0.0250474     -1.2142  0.000156111
4740  -0.0368003   0.0243346     -4.0824  0.000237824
4750  -0.0407993   0.0205714     -3.6726  7.61829e-05
4760   -0.038324   0.0229008    0.831999  -0.000126091
4770  -0.0382775   0.0229446      -6.953  0.000117484
4780  -0.0406737   0.0206897     -4.0832  0.000362458
4790  -0.0455266   0.0161228     -4.4926  -4.22858e-06
4800  -0.0405891   0.0207692     -1.6272  -0.000330904
4810  -0.0389086   0.0223507      -3.675  3.67697e-05
4820  -0.0413245   0.0200772     -2.4468  0.000159841
4830  -0.0421054   0.0193424     -4.9044  3.70532e-05
4840  -0.0420656   0.0193798     -2.4468  -4.52593e-05
4850  -0.0412002   0.0201942      -6.133  -4.53554e-05
4860  -0.0411585   0.0202335     -3.2656  0.000161533
4870  -0.0444309    0.017154     -4.0852  0.000286371
4880  -0.0468859   0.0148438     -4.0852  0.000204391
4890  -0.0485187   0.0133072      -2.446  -0.000211458
4900  -0.0426567   0.0188235     -1.6284  -4.45334e-05
4910   -0.047628   0.0141454     -2.8558  0.000330758
4920  -0.0492719   0.0125984     -6.9526  0.000206632
4930  -0.0517606   0.0102564     -6.5428  -8.66512e-05
4940  -0.0475389   0.0142293     -8.5906  -0.000212584
4950   -0.047509   0.0142574     -3.2676  -8.7337e-05
4960  -0.0457921    0.015873     -1.6288  -0.000129772
4970  -0.0449135   0.0166998      -2.448  3.89766e-05
4980  -0.0465717   0.0151395     -3.6782  0.000166146
4990  -0.0482364   0.0135729     -6.9542  0.000293314
