Time   Number   
ps   
0           2           6
10           5           6
20           4           3
30           1           3
40           5           3
50           6           1
60           5           4
70           5           6
80           2           4
90           2           2
100           3           0
110           4           1
120           2           4
130           2           3
140           6           5
150           1           7
160           1           1
170           0           5
180           4           2
190           2           4
200           2           2
210           0           7
220           3           3
230           4           4
240           3           4
250           2           8
260           5           7
270           4           4
280           4           3
290           2           4
300           6           1
310           1           4
320           1           2
330           1           1
340           3           0
350           1           3
360           3           2
370           5           6
380           4           6
390           6           5
400           7           4
410           3           3
420           4           5
430           4           4
440           7           2
450           5           1
460           3           1
470           4           4
480           3           2
490           5           2
500           3           3
510           4           4
520           3           5
530           4           4
540           2           2
550           3           5
560           2           6
570           3           6
580           2           2
590           3           6
600           5           1
610           3           5
620           4           4
630           3           7
640           3           3
650           4           6
660           5           3
670           4           6
680           3           5
690           4           2
700           5           1
710           3           2
720           4           0
730           2           5
740           1           4
750           4           3
760           1           3
770           5           4
780           1           1
790           1           5
800           1           1
810           1           1
820           1           2
830           2           2
840           2           2
850           2           1
860           2           1
870           2           0
880           3           2
890           3           5
900           4           4
910           1           1
920           3           2
930           2           3
940           3           0
950           2           2
960           0           2
970           2           3
980           3           1
990           4           2
1000           3           3
1010           3           3
1020           2           2
1030           4           1
1040           4           1
1050           2           4
1060           3           1
1070           2           1
1080           0           4
1090           0           3
1100           0           2
1110           1           4
1120           2           2
1130           3           0
1140           2           1
1150           3           7
1160           1           2
1170           3           3
1180           1           1
1190           0           3
1200           2           2
1210           2           2
1220           2           1
1230           3           4
1240           4           3
1250           3           1
1260           2           3
1270           2           4
1280           2           2
1290           2           5
1300           6           2
1310           4           2
1320           4           2
1330           3           2
1340           2           3
1350           2           4
1360           4           1
1370           2           6
1380           3           0
1390           4           1
1400           3           5
1410           6           3
1420           2           2
1430           3           3
1440           2           2
1450           3           5
1460           2           3
1470           1           2
1480           2           2
1490           2           2
1500           2           3
1510           2           0
1520           2           4
1530           1           2
1540           1           1
1550           2           2
1560           4           0
1570           2           3
1580           1           3
1590           5           2
1600           3           1
1610           3           4
1620           2           2
1630           4           1
1640           6           3
1650           1           3
1660           3           5
1670           3           2
1680           3           5
1690           4           5
1700           1           3
1710           1           5
1720           1           4
1730           1           3
1740           1           5
1750           1           4
1760           1           6
1770           0           3
1780           0           4
1790           0           0
1800           1           4
1810           1           1
1820           1           3
1830           5           2
1840           2           2
1850           3           4
1860           2           3
1870           1           1
1880           1           3
1890           2           2
1900           2           0
1910           1           2
1920           2           2
1930           2           1
1940           3           2
1950           1           1
1960           1           1
1970           2           3
1980           1           1
1990           2           0
2000           2           1
2010           1           1
2020           0           3
2030           3           3
2040           4           0
2050           3           0
2060           1           3
2070           0           3
2080           3           2
2090           3           2
2100           4           3
2110           2           2
2120           1           1
2130           1           5
2140           1           2
2150           1           5
2160           1           1
2170           2           1
2180           1           2
2190           2           3
2200           1           4
2210           1           1
2220           0           3
2230           0           2
2240           1           5
2250           1           2
2260           1           5
2270           1           4
2280           1           2
2290           3           2
2300           3           1
2310           1           5
2320           2           2
2330           1           3
2340           1           2
2350           1           1
2360           2           4
2370           1           5
2380           5           2
2390           2           5
2400           2           2
2410           2           2
2420           5           0
2430           1           7
2440           3           2
2450           3           7
2460           1           1
2470           3           1
2480           1           1
2490           2           1
2500           4           4
2510           2           1
2520           3           3
2530           2           2
2540           2           6
2550           4           5
2560           2           3
2570           5           4
2580           5           3
2590           4           1
2600           4           4
2610           5           3
2620           4           5
2630           3           3
2640           3           0
2650           3           2
2660           1           3
2670           1           6
2680           3           4
2690           1           3
2700           1           2
2710           2           2
2720           1           3
2730           2           6
2740           4           5
2750           2           7
2760           1           5
2770           5           2
2780           1           7
2790           3           4
2800           2           5
2810           2           5
2820           3           2
2830           1           2
2840           5           1
2850           2           3
2860           2           1
2870           2           7
2880           1           3
2890           2           0
2900           2           3
2910           2           5
2920           1           3
2930           1           2
2940           3           3
2950           2           4
2960           2           2
2970           1           1
2980           1           4
2990           1           3
3000           2           2
3010           3           3
3020           4           3
3030           1           5
3040           1           3
3050           3           4
3060           4           2
3070           3           4
3080           3           0
3090           3           2
3100           5           2
3110           3           2
3120           2           2
3130           1           4
3140           3           2
3150           1           4
3160           4           2
3170           3           1
3180           4           4
3190           2           3
3200           4           3
3210           2           3
3220           2           2
3230           1           2
3240           2           4
3250           2           4
3260           2           2
3270           1           0
3280           0           3
3290           4           1
3300           2           2
3310           2           3
3320           2           1
3330           0           5
3340           2           0
3350           1           4
3360           2           4
3370           0           3
3380           1           3
3390           3           1
3400           3           3
3410           2           3
3420           3           6
3430           2           5
3440           3           3
3450           2           1
3460           0           5
3470           4           5
3480           2           3
3490           2           5
3500           4           4
3510           4           0
3520           1           3
3530           3           1
3540           3           1
3550           0           1
3560           3           2
3570           2           2
3580           1           5
3590           3           3
3600           2           3
3610           2           5
3620           3           4
3630           2           4
3640           3           2
3650           4           1
3660           2           2
3670           2           3
3680           3           2
3690           1           3
3700           2           4
3710           3          10
3720           0           8
3730           2           1
3740           2           3
3750           1           2
3760           2           1
3770           2           1
3780           0           2
3790           1           4
3800           0           6
3810           1           2
3820           1           1
3830           1           1
3840           1           2
3850           1           0
3860           3           6
3870           2           5
3880           0           3
3890           1           6
3900           1           3
3910           0           4
3920           1           3
3930           1           4
3940           1           3
3950           1           3
3960           0           2
3970           1           4
3980           0           7
3990           0           3
4000           0           1
4010           1           5
4020           0           4
4030           1           4
4040           5           4
4050           5           3
4060           2           2
4070           2           4
4080           1           3
4090           2           3
4100           2           5
4110           1           6
4120           4           5
4130           1           9
4140           3           1
4150           4           2
4160           0           5
4170           2           2
4180           5           1
4190           3           0
4200           3           4
4210           1           4
4220           1           5
4230           3           4
4240           6           3
4250           3           4
4260           2           5
4270           4           1
4280           3           6
4290           2           5
4300           2           5
4310           1           3
4320           3           5
4330           3           6
4340           4           5
4350           4           5
4360           4           3
4370           4           5
4380           4           7
4390           4           1
4400           6           4
4410           2          10
4420           4           2
4430           4           3
4440           2           5
4450           6           4
4460           3           6
4470           6           9
4480           3           8
4490           5           3
4500           3           4
4510           4           6
4520           3           5
4530           6           4
4540           4           2
4550           4           5
4560           4           2
4570           3           8
4580           5           6
4590           5           7
4600           2           9
4610           3           4
4620           4           4
4630           3           4
4640           4           3
4650           2           6
4660           6           6
4670           3           7
4680           3           8
4690           3           6
4700           4           4
4710           3           3
4720           4           5
4730           5           4
4740           2          12
4750           3           5
4760           4           7
4770           2           8
4780           4           8
4790           3           4
4800           6           3
4810           3           3
4820           3           4
4830           3           6
4840           2           5
4850           4           3
4860           4           4
4870           4           3
4880           1           8
4890           2           6
4900           3           2
4910           2          11
4920           3           8
4930           5           6
4940           3           5
4950           2           5
4960           3           7
4970           2           7
4980           1           7
4990           3           7
5000           3           6
5010           2           5
5020           2           4
5030           1           8
5040           1           4
5050           3           6
5060           3           1
5070           3           4
5080           2           2
5090           3           2
5100           2           1
5110           5           4
5120           1           3
5130           3           2
5140           2           4
5150           1           1
5160           2           3
5170           2           4
5180           2           4
5190           2           4
5200           4           2
5210           3           6
5220           3           3
5230           1           2
5240           2           2
5250           2           3
5260           4           3
5270           7           1
5280           6           3
5290           4           3
5300           5           3
5310           5           4
5320           3           2
5330           3           7
5340           4           1
5350           4           5
5360           4           3
5370           4           2
5380           5           3
5390           4           3
5400           4           3
5410           4           2
5420           5           2
5430           7           0
5440           6           3
5450           2           3
5460           6           2
5470           5           1
5480           6           5
5490           7           2
5500           8           2
5510           7           4
5520           9           4
5530           5           7
5540           6           4
5550           7           1
5560           5           4
5570           7           4
5580           8           7
5590           7           7
5600           2           6
5610           6           3
5620           7           2
5630           5           2
5640           4           7
5650           3           1
5660           5           4
5670           6           2
5680           5           8
5690           4           4
5700           5           6
5710           5           6
5720           7           2
5730           4           3
5740           6           2
5750           4           1
5760           2           3
5770           3           4
5780           2           4
5790           4           2
5800           4           3
5810           3           4
5820           4           3
5830           2           6
5840           5           3
5850           5           3
5860           4           1
5870           5           5
5880           4           5
5890           4           6
5900           5           2
5910           4           3
5920           3           5
5930           4           0
5940           3           3
5950           3           4
5960           3           3
5970           1           6
5980           5           5
5990           4           2
6000           3           5
6010           2           4
6020           4           2
6030           5           4
6040           7           2
6050           4           3
6060           3           5
6070           4           7
6080           8           3
6090           5           6
6100           4           4
6110           8           5
6120           8           5
6130           5           6
6140           6           1
6150           4           1
6160           5           3
6170           6           1
6180           5           1
6190           6           3
6200           1           0
6210           2           3
6220           4           0
6230           2           6
6240           4           3
6250           1           2
6260           3           2
6270           2           2
6280           4           3
6290           1           6
6300           4           0
6310           4           4
6320           1           0
6330           1           3
6340           1           4
6350           5           1
6360           3           4
6370           2           5
6380           2           1
6390           3           3
6400           1           2
6410           2           2
6420           1           0
6430           2           4
6440           2           1
6450           1           3
6460           2           5
6470           4           0
6480           2           1
6490           2           1
6500           1           4
6510           3           1
6520           1           3
6530           3           1
6540           2           2
6550           4           4
6560           0           4
6570           3           2
6580           3           4
6590           2           3
6600           2           2
6610           1           4
6620           4           1
6630           2           3
6640           2           3
6650           1           2
6660           1           3
6670           2           4
6680           3           2
6690           4           2
6700           4           7
6710           2           4
6720           2           3
6730           2           3
6740           3           4
6750           1           3
6760           2           1
6770           2           2
6780           1           2
6790           1           4
6800           1           3
6810           0           2
6820           2           4
6830           1           1
6840           1           2
6850           0           1
6860           1           3
6870           0           2
6880           1           3
6890           0           2
6900           0           1
6910           0           2
6920           2           2
6930           0           4
6940           0           3
6950           1           8
6960           1           2
6970           2           1
6980           1           7
6990           1           2
7000           2           2
7010           1           5
7020           2           3
7030           4           3
7040           3           3
7050           0           3
7060           1           1
7070           1           2
7080           0           3
7090           2           1
7100           3           5
7110           0           5
7120           1           2
7130           1           1
7140           0           2
7150           0           5
7160           1           2
7170           0           3
7180           1           3
7190           1           5
7200           4           4
7210           1           9
7220           0           4
7230           1           4
7240           3           1
7250           3           6
7260           2           7
7270           1           5
7280           3           3
7290           2           5
7300           1           3
7310           1           3
7320           1           5
7330           2           5
7340           2           5
7350           3           6
7360           5           9
7370           2           4
7380           3           2
7390           3           7
7400           2           3
7410           3           5
7420           2           6
7430           2           5
7440           4           6
7450           4           8
7460           2           4
7470           3           7
7480           5           3
7490           2           5
7500           2           6
7510           2           4
7520           3           6
7530           5           3
7540           4           9
7550           6           6
7560           5           5
7570           5           6
7580           2           3
7590           4           4
7600           3           4
7610           0           2
7620           2           7
7630           5           5
7640           1           7
7650           3           2
7660           4           1
7670           2           2
7680           3           3
7690           4           4
7700           2           4
7710           2           7
7720           1           4
7730           1           5
7740           4           3
7750           2           6
7760           1           2
7770           3           2
7780           0           4
7790           3           3
7800           3           4
7810           0           1
7820           1           2
7830           1           2
7840           4           2
7850           4           4
7860           3           2
7870           2           4
7880           2           3
7890           4           1
7900           1           2
7910           1           5
7920           2           2
7930           0           4
7940           3           0
7950           1           5
7960           1           4
7970           3           1
7980           1           4
7990           1           3
8000           1           3
8010           3           5
8020           2           5
8030           3           4
8040           1           2
8050           1           2
8060           2           4
8070           1           5
8080           2           2
8090           0           6
8100           2           2
8110           1           3
8120           3           1
8130           2           3
8140           1           6
8150           1           3
8160           1           3
8170           2           5
8180           2           3
8190           3           1
8200           1           2
8210           1           1
8220           1           2
8230           0           3
8240           2           0
8250           2           2
8260           1           2
8270           0           3
8280           2           2
8290           1           1
8300           0           3
8310           1           2
8320           2           4
8330           1           2
8340           1           0
8350           1           3
8360           3           2
8370           1           5
8380           1           2
8390           1           2
8400           1           4
8410           1           3
8420           1           4
8430           2           4
8440           0           2
8450           1           3
8460           1           2
8470           0           8
8480           0           0
8490           0           2
8500           1           3
8510           0           1
8520           2           0
8530           1           1
8540           1           2
8550           0           4
8560           2           3
8570           1           5
8580           2           6
8590           2           2
8600           2           2
8610           1           2
8620           0           2
8630           0           4
8640           1           2
8650           2           2
8660           1           5
8670           1           1
8680           1           1
8690           1           4
8700           0           4
8710           1           6
8720           3           2
8730           1           2
8740           3           2
8750           1           2
8760           1           2
8770           0           6
8780           3           5
8790           1           3
8800           0           5
8810           1           4
8820           1           3
8830           1           5
8840           1           4
8850           3           7
8860           2           3
8870           2           7
8880           2           1
8890           2           2
8900           1           4
8910           3           6
8920           3          10
8930           1           7
8940           1           4
8950           0           2
8960           2           4
8970           2           7
8980           2           4
8990           4           3
9000           3           3
9010           3           4
9020           3           2
9030           3           4
9040           4           2
9050           6           4
9060           4           3
9070           2           2
9080           3           7
9090           2           3
9100           2           5
9110           2           3
9120           2           2
9130           2           3
9140           2           0
9150           2           1
9160           2           3
9170           2           4
9180           0           1
9190           2           1
9200           1           3
9210           1           2
9220           1           3
9230           1           2
9240           2           2
9250           2           2
9260           4           3
9270           2           3
9280           0           4
9290           2           4
9300           2           1
9310           2           2
9320           2           2
9330           3           1
9340           0           2
9350           0           3
9360           0           2
9370           2           6
9380           2           5
9390           4           3
9400           1           1
9410           1           3
9420           2           6
9430           3           3
9440           1           4
9450           1           1
9460           0           1
9470           0           0
9480           1           0
9490           2           2
9500           2           4
9510           0           2
9520           3           4
9530           1           7
9540           2           4
9550           3           3
9560           3           4
9570           1           4
9580           1           4
9590           1           2
9600           2           1
9610           1           4
9620           3           4
9630           0           4
9640           1           3
9650           2           3
9660           1           6
9670           4           3
9680           2           4
9690           3           2
9700           4           3
9710           3           7
9720           2           6
9730           4           3
9740           2           4
9750           5           4
9760           5           3
9770           4           7
9780           3           6
9790           1           3
9800           2           3
9810           5           4
9820           4           3
9830           2           6
9840           3           5
9850           5           4
9860           4           9
9870           5           5
9880           3           3
9890           6           4
9900           4           3
9910           5           3
9920           4           3
9930           3           2
9940           3           5
9950           4           8
9960           4           7
9970           4           7
9980           4           5
9990           6           4
10000           7           3
