Time   C(t)   
ps   
0           1           1  3.0736e-10   0.0300423
10    0.702818    0.879997    0.176457   0.0163915
20     0.67217    0.867622  -0.0827442  0.00274073
30    0.648004    0.857863    0.282881  0.00203241
40    0.631522    0.851208   -0.068791  0.00169243
50    0.614155    0.844195   -0.160175  0.00146767
60    0.602169    0.839355   -0.633028   0.0013261
70    0.587633    0.833485    -1.47136  0.00135469
80    0.575075    0.828414    0.128764  0.00109346
90    0.565764    0.824654   -0.207229  0.00094696
100    0.556136    0.820767    0.371437  0.00101406
110    0.545483    0.816465   -0.848093  0.000945136
120    0.537233    0.813134   -0.360632  0.000795957
130    0.529564    0.810037      0.2942  0.00068731
140    0.523487    0.807583    -0.60527  0.000733754
150    0.514889    0.804111    0.110911  0.000875533
160    0.505976    0.800512    -0.28527  0.00075165
170    0.499856    0.798041   -0.559824  0.000627579
180    0.493425    0.795444    -1.03278  0.000649552
190    0.486865    0.792795   -0.393271  0.000741172
200    0.478601    0.789458   -0.164119  0.000808385
210    0.470697    0.786266   -0.316808  0.000682002
220    0.464961     0.78395   -0.575861  0.000506194
230    0.460573    0.782178   -0.347572  0.000473262
240    0.455496    0.780128   0.0636786  0.000487477
250    0.450823    0.778241   -0.135216  0.000596368
260    0.443568    0.775312  -0.0892036  0.000540578
270    0.440012    0.773875    0.261159  0.000384513
280    0.435878    0.772206    -0.62278  0.000438464
290    0.431243    0.770334   -0.211545  0.000365213
300    0.428574    0.769257    0.183981  0.000333722
310    0.424568    0.767639    0.458579  0.000414322
320    0.420288    0.765911    0.641258  0.000455245
330    0.415463    0.763963    0.488644  0.000339773
340    0.413492    0.763167     1.03719  0.000296582
350    0.409532    0.761567    0.610226  0.00041571
360    0.405178    0.759809     1.52514  0.000315197
370    0.403228    0.759022    0.534135  0.000302441
380    0.399129    0.757367    0.594904  0.00039883
390    0.395251    0.755801    0.426952  0.000372845
400    0.391672    0.754356    0.548639  0.000344829
410    0.388354    0.753016     1.18839  0.000347485
420    0.384722    0.751549    0.441486  0.000323188
430    0.381891    0.750406     1.02038  0.000360519
440    0.377512    0.748638   -0.473441  0.000328347
450    0.375324    0.747754   -0.153604  0.000226787
460    0.372976    0.746806  -0.0622946  0.000337484
470    0.368574    0.745029    0.395325  0.000458109
480    0.363814    0.743107     0.41038  0.000329234
490    0.361989     0.74237   0.0747741  0.000151609
500    0.360782    0.741882    0.607934  0.000165543
510    0.358679    0.741033    0.516148  0.000237739
520    0.356027    0.739962   -0.169894  0.000415289
530    0.350373    0.737679    0.455216  0.00037905
540    0.348446    0.736901   -0.505127   0.0002299
550    0.345775    0.735822   -0.505425  0.000298649
560    0.342473    0.734489    -1.17603  0.000170244
570     0.34237    0.734447   -0.658084  0.000243148
580     0.33761    0.732525   -0.596779  0.000313942
590    0.336091    0.731912   -0.810222  0.000126611
600    0.335078    0.731503    -1.14615  0.000142597
610    0.333239     0.73076    -1.05493  0.000158562
620    0.331907    0.730222   -0.734756  0.000351633
630    0.326206    0.727921   -0.261977  0.000328569
640    0.325335    0.727569   -0.323342  0.000136413
650    0.323478    0.726819    -1.26826  0.000211552
660    0.321104     0.72586    -1.05559  0.000360104
670    0.316276    0.723911    0.225602  0.000344962
680    0.314205    0.723074   -0.338456  0.000258794
690      0.3111    0.721821    0.514675  0.000312781
700     0.30795    0.720548  -0.0639464  7.93546e-05
710    0.309513     0.72118    0.270677  3.41132e-05
720    0.307267    0.720273     1.10846  0.000294413
730    0.303625    0.718802    0.544918  0.000408439
740    0.299098    0.716974     0.40779  0.000207995
750    0.299465    0.717122    0.361362  0.00010695
760    0.296959    0.716111     0.31587  0.000210948
770    0.295246    0.715419    0.254819  0.000189477
780     0.29317     0.71458    -0.23294  0.000313859
790    0.288969    0.712884   -0.446397  0.000360475
800     0.28596    0.711669    0.102026  0.000206992
810    0.284829    0.711212    0.452388  0.000161365
820    0.282733    0.710366    0.375627  0.000352541
830    0.277778    0.708365    0.147546  0.000343117
840    0.275871    0.707595  -0.0966451  0.000116433
850     0.27545    0.707425   -0.249036  0.000189359
860    0.272084    0.706066   -0.081323  0.00029662
870    0.269517    0.705029    0.513068  0.000264949
880    0.266785    0.703926    0.360676  0.000247288
890    0.264571    0.703032    0.497492  0.000229672
900    0.262191    0.702071     0.64963  0.000248411
910    0.259603    0.701026   -0.188788  0.000340289
920    0.255385    0.699323    0.237888  0.000288124
930    0.253841    0.698699    0.298732  0.00016482
940    0.252089    0.697992   -0.143417  0.000104071
950    0.251759    0.697859    0.161128  0.000163455
960     0.24882    0.696672    0.313638  0.000326997
970    0.245219    0.695218    0.207065  0.000380822
980    0.241203    0.693596    0.405408  0.000230247
990    0.240614    0.693358    0.526768  0.000171595
1000    0.237772     0.69221   -0.159111  0.000239495
1010    0.235824    0.691424   0.0386522  0.000188784
1020    0.233996    0.690686    0.053811  0.000166613
1030    0.232492    0.690079   -0.296775  0.000218394
1040    0.229628    0.688922  0.00812644  0.000235288
1050    0.227786    0.688178   -0.372881  0.000240018
1060    0.224828    0.686984   -0.586681  0.000296206
1070    0.221862    0.685786    -1.04385  0.000181145
1080    0.221205    0.685521   -0.190589  0.000113444
1090    0.219593     0.68487   -0.770029  0.000148863
1100    0.218227    0.684318     -0.4799  0.00015124
1110    0.216569    0.683649    0.479997  9.14283e-05
1120    0.216399     0.68358   -0.251537  0.000199766
1130    0.212573    0.682035   -0.586934  0.000212431
1140     0.21215    0.681864   -0.861562  0.000183979
1150    0.208894    0.680549    -0.69361  0.000221767
1160    0.207715    0.680073   -0.526254  0.000138862
1170    0.206116    0.679428   -0.130326  0.00023114
1180    0.203092    0.678207   -0.663814  0.000219036
1190    0.201736    0.677659   -0.343784  0.00017978
1200    0.199497    0.676755   -0.435525  0.00031437
1210    0.195448     0.67512   0.0983348  0.000207936
1220    0.195338    0.675076    0.356866  0.000219087
1230    0.191067    0.673351    0.281281  0.000326672
1240    0.188804    0.672437  -0.0388832  0.00018643
1250    0.187338    0.671845  -0.0545923  0.00016372
1260     0.18553    0.671115    0.326668   0.0002612
1270    0.182114    0.669736   0.0984238  0.000168717
1280    0.182156    0.669753    0.570175  -2.16067e-08
1290    0.182114    0.669736    0.249907  0.00013763
1300    0.179403    0.668641   -0.222365  0.000197241
1310     0.17817    0.668143    0.966311  0.000153217
1320    0.176339    0.667404     1.04233  0.000153557
1330    0.175098    0.666903    0.630646  0.000181573
1340    0.172707    0.665937    0.676718  7.74868e-05
1350    0.173549    0.666277    0.676108  8.85285e-05
1360    0.170937    0.665222    0.310587  0.000208106
1370    0.169387    0.664596    0.676271  6.54273e-05
1380    0.169628    0.664694   0.0965041  0.000136353
1390     0.16666    0.663495    0.431618  0.000282168
1400    0.163985    0.662415    0.066112  0.000218505
1410    0.162289    0.661731  0.00520942  3.0046e-05
1420    0.163384    0.662172    0.370805  -6.30319e-06
1430    0.162416    0.661781    0.233364  6.24828e-05
1440    0.162134    0.661668   -0.300109  0.00016183
1450    0.159179    0.660474    0.263875  0.000155549
1460    0.159023    0.660412    0.416102  2.85991e-05
1470    0.158607    0.660244    0.370373  0.000184481
1480    0.155334    0.658922     0.30953  0.000150022
1490    0.155606    0.659032    0.614222  9.85138e-05
1500    0.153363    0.658126    0.507546  6.6077e-05
1510    0.154285    0.658498    0.461459  0.000127261
1520    0.150818    0.657098     1.14732  0.000157794
1530    0.151129    0.657224     0.67456  0.000110448
1540    0.148609    0.656206    0.461727  7.99894e-05
1550    0.149529    0.656578    0.659356  -2.87689e-05
1560    0.149184    0.656439     0.26328  0.000113164
1570    0.147266    0.655664    0.308786  0.000187729
1580     0.14543    0.654923    0.034827  7.64832e-05
1590    0.145736    0.655046    0.186801  0.000105326
1600    0.143323    0.654072   0.0799759  0.000250359
1610    0.140729    0.653024   0.0804227  0.000125592
1620    0.140812    0.653058    0.232218  7.09996e-05
1630    0.139309    0.652451   -0.194697  0.000139402
1640    0.138024    0.651932   0.0341573  4.70504e-05
1650    0.138368    0.652071    0.597917  0.000164406
1660    0.134735    0.650604    0.491375  0.000279614
1670    0.132776    0.649813    0.598126  0.000196186
1680    0.130812     0.64902    0.704594  0.000176688
1690    0.129242    0.648386    0.582937  0.00018158
1700     0.12718    0.647553    0.750457  5.53012e-05
1710    0.128136    0.647939    0.247362  4.6704e-05
1720    0.126246    0.647176    0.277709  0.000191478
1730    0.124307    0.646393     0.35386  0.000145099
1740    0.123344    0.646004    0.506087  0.000167846
1750     0.12095    0.645037      0.4758  0.000148051
1760    0.120383    0.644809    0.947923  0.000110455
1770    0.118741    0.644145     1.32868  0.000207036
1780    0.116242    0.643137    0.886946  0.000162598
1790    0.115489    0.642832    0.719083  0.000156362
1800    0.113115    0.641874    0.825834  0.000170163
1810    0.112085    0.641458     1.02391  0.000150384
1820    0.110107    0.640659     1.55728  0.000148428
1830    0.109117    0.640259    0.962352  0.000101436
1840    0.108079     0.63984      1.2365  9.48902e-05
1850    0.107219    0.639493      1.1449  0.000113253
1860    0.105814    0.638925    0.931693  0.000145246
1870    0.104314     0.63832    0.672655  0.000181861
1880    0.102176    0.637457    0.688022  6.1826e-05
1890    0.103078    0.637821     1.41909  -8.31783e-06
1900    0.102343    0.637524     1.29696  0.000162421
1910   0.0998291    0.636509     1.23639  0.000162716
1920   0.0990884     0.63621     1.75477  4.90062e-05
1930    0.098849    0.636113     1.61704  0.00019781
1940   0.0951322    0.634612     1.90676  0.000115688
1950   0.0965352    0.635179     1.79994  2.91601e-05
1960    0.094549    0.634377     1.51033  0.000182739
1970   0.0928804    0.633703      1.0686  0.00014645
1980     0.09162    0.633194     1.34321  8.70962e-05
1990   0.0911385       0.633     1.37345  3.43926e-05
2000   0.0909321    0.632916    0.870343  5.7523e-05
2010    0.089988    0.632535    0.961727  -6.01653e-05
2020   0.0921354    0.633402     1.25077  6.47485e-05
2030   0.0886931    0.632012     1.15959  0.000203456
2040   0.0880663    0.631759     1.05292  -6.47411e-05
2050   0.0899879    0.632535     1.00679  -2.5278e-05
2060   0.0885719    0.631963    0.808801  9.76209e-05
2070   0.0880355    0.631747     1.12864  0.000195647
2080   0.0846589    0.630383    0.900423  0.000100433
2090   0.0860268    0.630935     1.11346  -2.26505e-05
2100   0.0851119    0.630566    0.854366  -8.81925e-06
2110   0.0862032    0.631007     1.49413  6.19888e-07
2120   0.0850995    0.630561     1.00673  0.000197175
2130   0.0822597    0.629414    0.869495  0.000113157
2140   0.0828364    0.629647    0.747213  0.000158251
2150   0.0790947    0.628136     1.38799  0.000148974
2160   0.0798569    0.628444     1.98157  -2.68351e-05
2170   0.0796314    0.628353    0.945288  -1.75066e-05
2180    0.080207    0.628585     1.35657  4.38027e-05
2190   0.0787553    0.627999     1.82903  0.000199714
2200   0.0762128    0.626973     1.61593  6.05714e-05
2210   0.0775439     0.62751     1.46308  -0.000130892
2220   0.0788306     0.62803     2.05719  2.05763e-05
2230   0.0771324    0.627344     2.19445  0.000127305
2240   0.0762845    0.627002     2.19457  8.72809e-05
2250   0.0753867    0.626639     1.69155  2.79792e-05
2260   0.0757249    0.626776     2.19414  -3.8607e-05
2270   0.0761589    0.626951     1.90477  6.63277e-05
2280   0.0743984     0.62624     1.67643  0.000140398
2290   0.0733509    0.625817     1.75288  -2.78987e-06
2300   0.0744542    0.626262     2.45356  3.81198e-05
2310   0.0725885    0.625509     2.05759  0.000117216
2320   0.0721098    0.625316     1.84413   1.668e-05
2330   0.0722549    0.625374     1.95077  -2.16983e-05
2340   0.0725438    0.625491     1.41749  -1.45026e-05
2350    0.072545    0.625491     1.90501  -5.32053e-05
2360   0.0736079    0.625921     2.07227  0.000115776
2370   0.0702295    0.624556     1.18835  0.000222247
2380    0.069163    0.624126     1.44739  -8.70075e-05
2390   0.0719696    0.625259     1.34055  -5.30578e-05
2400   0.0702241    0.624554     1.29439  2.90714e-05
2410   0.0713882    0.625024     1.55333  2.69383e-05
2420   0.0696854    0.624337     1.38601  0.000214276
2430   0.0671027    0.623294     1.26426  8.06682e-05
2440    0.068072    0.623685     1.30963  7.62768e-05
2450   0.0655771    0.622678    0.837406  0.000144715
2460   0.0651777    0.622517     1.18766  6.19881e-05
2470   0.0643374    0.622177    0.837228  0.000138043
2480   0.0624168    0.621402     1.34004  7.21287e-05
2490   0.0628948    0.621595    0.989619  8.62032e-06
2500   0.0622444    0.621332     1.12657  5.52796e-05
2510   0.0617892    0.621148    0.714812  9.73405e-05
2520   0.0602976    0.620546     1.06498  9.50597e-05
2530    0.059888    0.620381    0.516126  0.000144767
2540   0.0574023    0.619377    0.653924  0.000145033
2550   0.0569873    0.619209     1.04972  0.000128257
2560   0.0548371    0.618341     0.19629  0.000240056
2570   0.0521862    0.617271    0.729688  0.000156236
2580   0.0517124    0.617079    0.440124  2.9994e-05
2590   0.0515864    0.617028     1.12572  0.000152111
2600   0.0486702    0.615851    0.790516  0.000107481
2610   0.0494367     0.61616     1.17137  5.30578e-05
2620    0.047609    0.615422    0.896746  0.000170525
2630   0.0460262    0.614783      1.4456  0.000161011
2640   0.0443888    0.614122     1.23256  7.36715e-05
2650   0.0445528    0.614188     2.07034  6.64607e-05
2660   0.0430596    0.613585     1.53688  3.38539e-05
2670   0.0438757    0.613915     1.84159  6.68298e-05
2680    0.041723    0.613046     1.68929  8.19523e-05
2690   0.0422367    0.613253     1.27725  -9.52184e-07
2700   0.0417421    0.613053      1.3841  -3.13595e-05
2710   0.0428639    0.613506     1.03313  1.42148e-05
2720   0.0414578    0.612938     1.18572  6.48076e-05
2730   0.0415677    0.612983     1.35326  0.000131091
2740   0.0388359     0.61188     1.18586  0.000143925
2750   0.0386892     0.61182     1.42974   0.0001165
2760   0.0365059    0.610939     2.20712  0.000254329
2770   0.0336026    0.609766      1.9631  0.000119762
2780   0.0341107    0.609972     2.11543  1.80526e-05
2790   0.0332416    0.609621     1.70373  3.84521e-05
2800   0.0333417    0.609661      1.8256  -1.77279e-05
2810   0.0335961    0.609764     1.79489  2.06567e-07
2820   0.0333375    0.609659     1.53582  4.12935e-05
2830   0.0327703     0.60943     1.82534  3.10643e-05
2840   0.0327162    0.609409     2.57189  0.000108514
2850      0.0306    0.608554     2.14563  0.00014228
2860   0.0298706    0.608259     2.64845  1.60967e-05
2870    0.030278    0.608424     2.34339  8.34726e-05
2880   0.0282012    0.607585      1.6577  0.000153564
2890   0.0272068    0.607184     2.86184  8.14061e-05
2900   0.0265731    0.606928      2.5113  2.18535e-05
2910   0.0267697    0.607007     1.87095  6.33243e-06
2920   0.0264464    0.606877     1.56611  -3.79871e-05
2930   0.0275294    0.607314     2.12983  1.16094e-05
2940   0.0262142    0.606783      1.9316  9.25062e-05
2950   0.0256793    0.606567      2.0079  0.00020801
2960    0.022054    0.605103     2.00829  -5.63938e-05
2970   0.0268072    0.607022     1.91583  -0.000210822
2980   0.0262705    0.606806     2.32756  0.000132582
2990   0.0241555    0.605952     1.87042  3.5426e-05
3000   0.0255619     0.60652     2.49511  7.00623e-05
3010   0.0227543    0.605386      2.2817  0.000201965
3020   0.0215226    0.604889     2.28185  0.000147158
3030   0.0198111    0.604197     2.52568  8.92958e-05
3040   0.0197367    0.604167     1.87005  0.000100256
3050    0.017806    0.603388     2.63213  0.000140272
3060   0.0169313    0.603035     2.40347  0.000127408
3070   0.0152578    0.602359     2.57137  0.000117031
3080   0.0145907    0.602089     2.19025  8.16276e-06
3090   0.0150946    0.602293     2.03757  0.000136471
3100   0.0118612    0.600987     2.23576  0.000128552
3110   0.0125235    0.601255     2.22012  -2.8791e-05
3120    0.012437     0.60122     2.28127  0.00010785
3130   0.0103665    0.600384     2.25052  0.000137549
3140  0.00968607    0.600109     2.09844  4.93234e-05
3150  0.00938008    0.599985     2.79901  5.75378e-05
3160  0.00853531    0.599644     1.88474  4.68657e-05
3170  0.00844276    0.599607     1.97578  9.84327e-05
3180  0.00656666    0.598849     2.23542  0.000106647
3190  0.00630982    0.598746     2.41814  -5.81725e-05
3200  0.00773011    0.599319     1.76243  8.29486e-05
3210  0.00465085    0.598076     2.49429  8.55022e-05
3220  0.00602006    0.598629     1.94529  6.4313e-05
3230  0.00336459    0.597556     2.25028  0.000211434
3240  0.00179138    0.596921     2.38735  7.56272e-05
3250  0.00185204    0.596946     2.11312  1.30707e-05
3260  0.00152996    0.596815     2.05177  -2.24734e-05
3270  0.00230151    0.597127     1.57922  7.90074e-05
3280  -5.01869e-05    0.596177     2.18908  0.000172355
3290  -0.00114559    0.595735     1.62489  3.81789e-05
3300  -0.000813766    0.595869      1.6555  3.01712e-05
3310  -0.00174901    0.595491     1.73161  8.53251e-05
3320  -0.00252027     0.59518     1.92977  -2.81194e-06
3330  -0.00169277    0.595514     1.76184  5.26224e-05
3340  -0.00357272    0.594755     2.17373  8.02916e-05
3350  -0.00329861    0.594866     2.11242  2.79792e-05
3360  -0.0041323    0.594529     1.80761  1.40597e-05
3370  -0.0035798    0.594752     1.59429  -1.36243e-05
3380  -0.00385981    0.594639     2.02116  -8.14799e-06
3390  -0.00341684    0.594818     1.44145  1.98238e-05
3400  -0.00425629    0.594479     1.38077  -1.37497e-05
3410  -0.00314185    0.594929     1.79212  5.35376e-05
3420  -0.00532704    0.594047     1.28921  0.000238535
3430  -0.00791255    0.593003     1.59439  -1.91596e-05
3440  -0.00494385    0.594201     1.68528  -0.000114478
3450   -0.005623    0.593927     1.60909  0.000127224
3460  -0.00748833    0.593174      1.6093  8.23729e-05
3470  -0.00727046    0.593262     1.45668  -1.6141e-05
3480  -0.00716551    0.593304      1.4565  -3.03335e-05
3490  -0.00666378    0.593507     1.70023  8.0144e-05
3500  -0.00876839    0.592657     1.76142  0.000122788
3510  -0.00911955    0.592515     1.99012  9.48901e-05
3520  -0.0106662    0.591891     1.50213  8.93696e-05
3530  -0.0109069    0.591793     1.35003  -6.99886e-05
3540  -0.00926642    0.592456      1.5935  -3.86365e-05
3550  -0.0101342    0.592105     1.89846  4.11533e-05
3560  -0.0100895    0.592124     1.24312  1.23992e-06
3570   -0.010159    0.592095     1.50219  -3.32119e-05
3580  -0.00942524    0.592392     1.50217  1.56317e-05
3590  -0.0104716    0.591969     1.44117  2.13147e-05
3600  -0.00985154     0.59222     1.01435  -5.63791e-05
3610  -0.00934406    0.592425    0.892281   0.0001023
3620  -0.0118975    0.591393    0.724821  0.000116869
3630  -0.0116814    0.591481    0.709469  1.5425e-06
3640  -0.0119284    0.591381    0.602539  -0.000155225
3650  -0.00857694    0.592734    0.556512  -8.56351e-05
3660  -0.0102157    0.592073    0.632931  6.84164e-06
3670  -0.00871377    0.592679     1.04424  4.49985e-05
3680  -0.0111157    0.591709    0.541279  0.000129549
3690  -0.0113047    0.591633    0.739935  -4.82754e-05
3700  -0.0101501    0.592099    0.434558  -8.93548e-05
3710  -0.00951765    0.592354   -0.159669  1.29748e-05
3720  -0.0104096    0.591994    0.236541  5.70138e-05
3730  -0.0106579    0.591894    0.327479  -2.22372e-05
3740  -0.0099649    0.592174    0.343025  -8.12068e-05
3750  -0.00903379     0.59255    0.540773  1.30633e-05
3760  -0.0102262    0.592068    0.693358  0.000220018
3770  -0.0134341    0.590773    0.586874  0.000137593
3780   -0.012978    0.590957    0.754454  -5.45634e-05
3790  -0.0123429    0.591214    0.815401  -3.98543e-05
3800  -0.0121809    0.591279     1.15074  -3.11011e-05
3810  -0.0117209    0.591465     1.77545  -2.52189e-05
3820  -0.0116766    0.591483     1.89722  6.72652e-05
3830  -0.0130662    0.590922     1.53163  3.74704e-05
3840   -0.012426     0.59118     1.65369  -2.5182e-05
3850  -0.0125625    0.591125     1.45558  3.16842e-05
3860  -0.0130597    0.590924     1.25719  0.000142974
3870   -0.015422     0.58997     1.50104  9.21151e-05
3880   -0.014902     0.59018     1.48582  -3.39721e-05
3890  -0.0147425    0.590245     2.01934  -7.64538e-05
3900  -0.0133729    0.590798     1.66852  -7.66236e-05
3910  -0.0132101    0.590863      1.7293  -1.02809e-05
3920  -0.0131673    0.590881     1.97309  -1.63919e-05
3930  -0.0128822    0.590996     1.74431  3.22524e-05
3940  -0.0138123     0.59062     1.57679  0.000144929
3950  -0.0157808    0.589825     1.91217  0.000166694
3960  -0.0171462    0.589274     2.00371  9.09121e-05
3970  -0.0175991    0.589091     1.89684  -5.56927e-05
3980  -0.0160323    0.589724      1.7293  -0.000153808
3990  -0.0145229    0.590333     2.07953  -0.000105171
4000  -0.0139289    0.590573     1.59188  1.12773e-05
4010  -0.0147484    0.590242     1.60715  2.66433e-05
4020  -0.0144618    0.590358     1.92718  -9.3569e-05
4030  -0.0128771    0.590998     1.69839  -3.81568e-05
4040  -0.0136987    0.590666       1.744  -2.6075e-05
4050  -0.0123556    0.591208     1.69833  2.05545e-05
4060  -0.0141097      0.5905     1.80511  5.45561e-05
4070  -0.0134467    0.590768     1.30209  -7.28448e-06
4080  -0.0139641    0.590559       1.302  6.42688e-05
4090  -0.0147321    0.590249     1.28693  -7.92067e-05
4100  -0.0123799    0.591199     1.13414  -4.79211e-05
4110  -0.0137736    0.590636     1.48494  6.75235e-05
4120  -0.0137304    0.590653     1.22561  3.02376e-05
4130  -0.0143784    0.590392     1.46959  1.77204e-05
4140  -0.0140848     0.59051      1.0735  -0.000155439
4150  -0.0112696    0.591647       1.073  -6.73906e-05
4160   -0.012737    0.591054     1.42367  -3.31676e-05
4170  -0.0106063    0.591915     1.59117  4.61572e-05
4180  -0.0136601    0.590682     1.57614  0.000147358
4190  -0.0135534    0.590725     1.57633  -9.01445e-05
4200  -0.0118572     0.59141     1.66756  -7.76052e-05
4210  -0.0120013    0.591352     1.45424  -7.16418e-05
4220  -0.0104244    0.591988     1.81975  -7.81439e-05
4230  -0.0104384    0.591983      1.3626  1.43182e-06
4240   -0.010453    0.591977     1.62176  -8.50963e-05
4250  -0.0087365     0.59267     2.00225  -0.000123777
4260  -0.0079775    0.592976     1.48386  -7.60257e-05
4270  -0.00721599    0.593284     1.66707  3.32267e-05
4280  -0.00864203    0.592708     1.69761  7.18927e-05
4290  -0.00865384    0.592703     2.00228  6.2586e-05
4300  -0.00989375    0.592203      2.0482  -4.74192e-05
4310  -0.00770546    0.593086     1.83462  3.05771e-05
4320  -0.0105053    0.591956     1.95685  4.6445e-05
4330  -0.00863436    0.592711     2.15474  -8.31848e-05
4340  -0.0088416    0.592627     2.21554  5.3353e-05
4350  -0.00970142     0.59228     1.75817  0.000167816
4360  -0.0121979    0.591272        1.85  0.000207589
4370  -0.0138532    0.590604     1.77356  -1.12921e-05
4380  -0.0119721    0.591363     1.33145  -9.64843e-05
4390  -0.0119235    0.591383     1.10293  4.45261e-05
4400  -0.0128626    0.591004     1.28598  0.000110544
4410  -0.0141344     0.59049    0.950907  -7.40478e-05
4420  -0.0113816    0.591602    0.858943  -0.000133497
4430  -0.0114645    0.591568     1.39218  0.000104426
4440  -0.0134702    0.590758     1.52977  1.82813e-05
4450  -0.0118301    0.591421     1.49894  -6.78114e-05
4460  -0.0121139    0.591306     1.62093  7.5081e-05
4470  -0.0133317    0.590814     1.75813  -1.52774e-06
4480  -0.0120834    0.591318     1.40728  0.000132464
4490   -0.015981    0.589745     1.04159  0.000259813
4500  -0.0172796     0.58922     1.02663  8.30814e-05
4510  -0.0176426    0.589074     1.37732  7.0018e-05
4520    -0.01868    0.588655     1.46857  0.000117422
4530  -0.0199911    0.588125    0.996398  1.31667e-05
4540  -0.0189433    0.588548     1.52947  9.79087e-05
4550  -0.0219492    0.587335     1.20966  0.000131814
4560  -0.0215796    0.587484     0.87425  -0.000179595
4570  -0.0183573    0.588785      1.4835  -0.000132449
4580  -0.0189306    0.588553     1.45315  9.49639e-05
4590  -0.0202566    0.588018     1.57499  -3.69018e-06
4600  -0.0188568    0.588583     1.72708  -0.000102632
4610   -0.018204    0.588847     1.68132  7.50441e-05
4620  -0.0203577    0.587977     1.69659  0.000105961
4630  -0.0203232    0.587991     2.19953  3.43706e-05
4640  -0.0210451      0.5877      1.5746  -3.7928e-05
4650  -0.0195646    0.588297     1.84874  -1.3735e-05
4660  -0.0207704    0.587811     1.52898  -7.97234e-05
4670  -0.0179702    0.588941     1.16268  -4.1537e-05
4680  -0.0199397    0.588146     1.43746  0.000145291
4690   -0.020876    0.587768     1.46782  0.000118116
4700   -0.022302    0.587192     1.72692  3.83413e-05
4710  -0.0216428    0.587458      1.3306  -3.16622e-06
4720  -0.0222387    0.587218      1.9252  2.21375e-07
4730  -0.0216472    0.587456     1.60517  -7.32508e-05
4740  -0.0207737    0.587809     1.87934  -5.94493e-05
4750  -0.0204582    0.587937     1.66572  4.2253e-05
4760  -0.0216187    0.587468     1.89444  3.16694e-05
4770  -0.0210916    0.587681     2.32118  -6.86385e-06
4780  -0.0214815    0.587523     2.12319  -6.35528e-05
4790  -0.0198206    0.588194      2.5497  -6.00545e-05
4800  -0.0202804    0.588008     2.21448  3.53743e-05
4810  -0.0205281    0.587908     2.38193  -1.42885e-05
4820  -0.0199946    0.588124     2.07707  -8.55686e-05
4830  -0.0188167    0.588599     1.95504  -7.24755e-06
4840  -0.0198496    0.588182     2.10755  -5.75821e-05
4850   -0.017665    0.589064     1.78736  -0.000136427
4860  -0.0171211    0.589284     2.27513  8.92441e-05
4870  -0.0194499    0.588344     2.04679  0.000121718
4880  -0.0195555    0.588301     1.89431  -3.26731e-05
4890  -0.0187965    0.588608      2.3664  -5.08068e-05
4900  -0.0185393    0.588711     2.18371  -3.29388e-05
4910  -0.0181377    0.588874     2.36655  1.05245e-05
4920  -0.0187498    0.588626     2.36638  0.000141291
4930  -0.0209635    0.587733     2.15319  0.000203567
4940  -0.0228212    0.586982      1.5435  0.000116847
4950  -0.0233004    0.586789     2.33611  -3.97583e-05
4960   -0.022026    0.587304     2.22942  -3.97879e-05
4970  -0.0225047     0.58711      1.8938  -1.07385e-05
4980  -0.0218112     0.58739     1.58915  -3.25469e-06
4990  -0.0224396    0.587137      1.6195  4.22914e-06
