Time   Number   
ps   
0          62          39
10          63          41
20          62          49
30          63          49
40          66          43
50          67          43
60          64          45
70          69          39
80          66          43
90          66          44
100          63          36
110          65          46
120          62          44
130          67          36
140          64          47
150          60          48
160          70          43
170          64          45
180          63          46
190          65          42
200          61          53
210          56          52
220          67          41
230          60          53
240          62          47
250          65          41
260          60          49
270          65          47
280          64          48
290          58          51
300          64          48
310          66          48
320          62          52
330          63          44
340          66          42
350          64          43
360          64          45
370          67          41
380          67          49
390          69          44
400          68          45
410          69          47
420          69          43
430          70          49
440          67          38
450          65          42
460          60          43
470          67          40
480          61          45
490          62          44
500          59          44
510          61          40
520          68          37
530          60          41
540          65          44
550          62          44
560          59          46
570          64          36
580          66          38
590          64          39
600          68          37
610          61          40
620          61          36
630          61          44
640          58          41
650          63          43
660          69          38
670          63          37
680          63          42
690          61          35
700          61          45
710          60          50
720          63          47
730          67          42
740          64          45
750          65          42
760          68          41
770          74          43
780          68          39
790          68          47
800          68          47
810          65          46
820          66          40
830          67          47
840          68          45
850          65          48
860          72          49
870          69          48
880          68          49
890          68          46
900          71          44
910          68          38
920          70          39
930          65          48
940          67          43
950          66          46
960          67          45
970          70          48
980          68          46
990          67          52
1000          71          49
1010          67          44
1020          69          46
1030          69          43
1040          71          40
1050          70          52
1060          69          43
1070          70          47
1080          68          49
1090          70          45
1100          69          54
1110          66          46
1120          70          38
1130          65          44
1140          64          46
1150          68          36
1160          68          43
1170          68          41
1180          65          44
1190          62          40
1200          66          41
1210          67          44
1220          71          42
1230          70          41
1240          70          43
1250          69          41
1260          70          40
1270          66          37
1280          66          36
1290          62          44
1300          69          41
1310          68          44
1320          71          42
1330          74          44
1340          67          42
1350          66          47
1360          64          40
1370          70          51
1380          77          45
1390          72          45
1400          63          53
1410          69          47
1420          70          48
1430          69          48
1440          67          44
1450          71          45
1460          68          49
1470          74          42
1480          75          48
1490          74          45
1500          71          53
1510          69          42
1520          73          45
1530          64          43
1540          65          48
1550          69          45
1560          73          45
1570          68          49
1580          65          44
1590          73          38
1600          64          47
1610          69          46
1620          74          46
1630          67          47
1640          70          48
1650          69          47
1660          68          49
1670          71          44
1680          68          52
1690          71          48
1700          75          51
1710          73          51
1720          65          51
1730          76          59
1740          74          49
1750          68          50
1760          70          50
1770          68          47
1780          71          46
1790          68          47
1800          71          42
1810          64          46
1820          62          42
1830          66          39
1840          65          44
1850          64          36
1860          64          44
1870          68          33
1880          65          39
1890          68          45
1900          65          44
1910          63          47
1920          65          45
1930          69          51
1940          71          46
1950          68          38
1960          62          42
1970          70          42
1980          66          42
1990          67          45
2000          69          44
2010          65          51
2020          68          40
2030          68          43
2040          69          51
2050          71          46
2060          67          45
2070          66          39
2080          65          41
2090          65          45
2100          62          45
2110          61          42
2120          67          41
2130          65          39
2140          61          42
2150          58          43
2160          60          48
2170          60          54
2180          68          48
2190          63          43
2200          70          45
2210          69          50
2220          67          48
2230          70          45
2240          71          46
2250          66          46
2260          68          50
2270          68          43
2280          65          45
2290          68          47
2300          61          52
2310          66          41
2320          63          36
2330          64          40
2340          60          45
2350          65          45
2360          67          38
2370          65          45
2380          60          43
2390          64          42
2400          61          34
2410          66          36
2420          64          41
2430          65          37
2440          64          30
2450          69          35
2460          66          40
2470          60          42
2480          65          36
2490          59          46
2500          63          37
2510          62          44
2520          66          40
2530          71          43
2540          66          48
2550          70          41
2560          66          42
2570          64          43
2580          69          42
2590          69          42
2600          68          42
2610          68          45
2620          68          45
2630          67          41
2640          68          44
2650          68          42
2660          69          47
2670          65          44
2680          66          41
2690          67          43
2700          66          39
2710          66          48
2720          66          42
2730          66          42
2740          64          43
2750          65          45
2760          66          42
2770          61          43
2780          65          41
2790          69          42
2800          62          45
2810          71          40
2820          71          48
2830          63          37
2840          65          44
2850          67          37
2860          62          40
2870          67          44
2880          64          41
2890          70          34
2900          64          37
2910          66          40
2920          64          41
2930          63          32
2940          65          34
2950          66          34
2960          64          39
2970          65          43
2980          61          38
2990          72          42
3000          67          46
3010          65          47
3020          66          41
3030          64          46
3040          70          37
3050          70          44
3060          68          47
3070          71          42
3080          63          45
3090          69          42
3100          65          42
3110          67          43
3120          67          36
3130          65          40
3140          67          41
3150          63          41
3160          70          43
3170          71          39
3180          70          39
3190          63          41
3200          69          36
3210          65          40
3220          67          43
3230          73          41
3240          71          41
3250          67          43
3260          70          43
3270          67          43
3280          69          47
3290          73          40
3300          69          44
3310          66          44
3320          70          41
3330          65          38
3340          67          42
3350          70          44
3360          65          45
3370          68          40
3380          69          40
3390          69          42
3400          69          39
3410          66          40
3420          67          39
3430          65          37
3440          65          48
3450          67          41
3460          73          48
3470          63          42
3480          66          52
3490          70          42
3500          68          51
3510          72          36
3520          68          47
3530          70          49
3540          66          47
3550          66          44
3560          71          42
3570          65          41
3580          66          39
3590          67          46
3600          61          37
3610          68          38
3620          67          38
3630          65          41
3640          66          41
3650          68          36
3660          58          46
3670          65          43
3680          65          40
3690          65          41
3700          65          46
3710          65          44
3720          66          44
3730          67          41
3740          66          42
3750          66          42
3760          68          38
3770          67          41
3780          64          36
3790          68          39
3800          57          43
3810          63          37
3820          62          47
3830          62          44
3840          63          43
3850          68          40
3860          67          41
3870          62          37
3880          62          45
3890          62          41
3900          69          46
3910          66          42
3920          68          41
3930          67          40
3940          65          45
3950          64          45
3960          69          40
3970          66          42
3980          62          42
3990          66          38
4000          64          37
4010          63          42
4020          63          48
4030          68          38
4040          64          45
4050          63          39
4060          66          40
4070          60          38
4080          61          39
4090          60          43
4100          64          34
4110          69          38
4120          64          40
4130          66          37
4140          61          32
4150          59          40
4160          58          42
4170          62          42
4180          64          36
4190          71          38
4200          67          47
4210          69          41
4220          68          39
4230          64          40
4240          65          38
4250          60          43
4260          64          32
4270          63          39
4280          66          38
4290          64          39
4300          70          36
4310          65          39
4320          68          38
4330          69          40
4340          68          44
4350          73          37
4360          70          35
4370          71          35
4380          72          34
4390          70          36
4400          69          38
4410          73          38
4420          68          37
4430          68          41
4440          72          37
4450          71          36
4460          66          42
4470          70          40
4480          64          42
4490          68          36
4500          71          40
4510          69          40
4520          73          37
4530          68          40
4540          70          39
4550          68          45
4560          64          47
4570          70          47
4580          66          52
4590          72          39
4600          71          44
4610          73          36
4620          68          35
4630          70          43
4640          75          36
4650          73          41
4660          71          44
4670          74          38
4680          71          42
4690          70          36
4700          76          38
4710          66          38
4720          69          39
4730          72          32
4740          67          35
4750          74          38
4760          70          40
4770          68          39
4780          69          41
4790          68          39
4800          71          38
4810          64          41
4820          64          40
4830          70          35
4840          69          39
4850          68          40
4860          72          38
4870          63          34
4880          73          36
4890          71          33
4900          69          38
4910          77          34
4920          69          38
4930          77          38
4940          72          39
4950          72          38
4960          71          35
4970          70          37
4980          67          38
4990          66          35
5000          76          39
5010          74          41
5020          75          36
5030          70          44
5040          73          47
5050          76          41
5060          73          40
5070          73          37
5080          72          43
5090          72          37
5100          71          39
5110          73          34
5120          66          40
5130          65          38
5140          66          38
5150          65          40
5160          67          43
5170          69          40
5180          72          36
5190          74          33
5200          65          37
5210          73          36
5220          70          43
5230          65          32
5240          70          36
5250          77          36
5260          70          39
5270          76          42
5280          71          36
5290          73          40
5300          74          38
5310          68          41
5320          75          36
5330          70          39
5340          69          42
5350          71          35
5360          66          37
5370          71          41
5380          71          35
5390          66          39
5400          72          43
5410          70          38
5420          73          34
5430          70          43
5440          70          41
5450          71          45
5460          72          36
5470          67          37
5480          72          35
5490          74          37
5500          65          37
5510          68          35
5520          69          40
5530          69          40
5540          71          38
5550          74          41
5560          71          36
5570          68          46
5580          70          42
5590          70          39
5600          72          33
5610          71          41
5620          70          45
5630          64          37
5640          68          39
5650          69          40
5660          69          34
5670          64          40
5680          70          39
5690          68          39
5700          70          39
5710          66          40
5720          66          35
5730          65          42
5740          62          35
5750          69          37
5760          67          40
5770          67          40
5780          64          37
5790          66          39
5800          64          38
5810          70          44
5820          67          38
5830          69          34
5840          68          42
5850          59          39
5860          66          39
5870          65          35
5880          65          41
5890          61          45
5900          65          35
5910          67          34
5920          67          37
5930          67          38
5940          68          40
5950          73          40
5960          70          38
5970          69          36
5980          63          39
5990          67          37
6000          63          41
6010          67          36
6020          68          34
6030          62          33
6040          64          33
6050          64          32
6060          61          35
6070          64          34
6080          64          42
6090          65          37
6100          68          39
6110          64          42
6120          66          42
6130          67          38
6140          66          41
6150          68          35
6160          64          35
6170          68          37
6180          68          37
6190          65          39
6200          64          35
6210          66          39
6220          66          41
6230          64          39
6240          68          39
6250          64          41
6260          67          38
6270          69          39
6280          64          38
6290          65          43
6300          66          42
6310          62          38
6320          66          40
6330          68          39
6340          69          40
6350          68          37
6360          66          45
6370          65          45
6380          72          41
6390          70          43
6400          64          39
6410          66          41
6420          65          40
6430          67          41
6440          63          49
6450          64          48
6460          62          40
6470          69          43
6480          68          43
6490          69          43
6500          76          45
6510          74          47
6520          72          53
6530          67          46
6540          68          45
6550          65          51
6560          67          48
6570          71          43
6580          73          38
6590          70          38
6600          67          48
6610          65          46
6620          66          43
6630          73          47
6640          68          45
6650          68          39
6660          68          40
6670          60          37
6680          68          44
6690          69          37
6700          64          42
6710          71          45
6720          72          37
6730          63          47
6740          70          48
6750          69          53
6760          69          40
6770          64          44
6780          62          39
6790          68          40
6800          63          44
6810          67          49
6820          70          42
6830          63          51
6840          69          43
6850          66          44
6860          71          38
6870          73          45
6880          71          45
6890          72          44
6900          71          46
6910          69          44
6920          72          43
6930          70          46
6940          72          47
6950          72          45
6960          74          42
6970          68          44
6980          68          36
6990          71          43
7000          71          39
7010          68          43
7020          70          49
7030          72          46
7040          73          44
7050          72          42
7060          74          49
7070          70          44
7080          72          48
7090          71          48
7100          76          43
7110          70          46
7120          70          40
7130          73          39
7140          70          44
7150          69          46
7160          73          45
7170          67          46
7180          69          43
7190          70          48
7200          72          42
7210          70          49
7220          72          48
7230          71          54
7240          75          44
7250          72          41
7260          74          42
7270          74          46
7280          72          46
7290          73          37
7300          72          48
7310          73          51
7320          72          41
7330          68          52
7340          71          44
7350          73          44
7360          66          49
7370          65          49
7380          71          46
7390          68          46
7400          73          45
7410          71          45
7420          69          44
7430          67          44
7440          74          45
7450          68          44
7460          72          43
7470          77          48
7480          72          48
7490          71          47
7500          69          44
7510          76          46
7520          78          44
7530          73          44
7540          72          50
7550          73          50
7560          69          49
7570          69          56
7580          68          50
7590          72          44
7600          73          47
7610          71          55
7620          70          49
7630          77          43
7640          71          42
7650          71          42
7660          72          45
7670          66          55
7680          69          47
7690          70          49
7700          73          43
7710          69          46
7720          66          44
7730          70          41
7740          73          43
7750          68          42
7760          71          49
7770          65          40
7780          63          42
7790          66          38
7800          67          45
7810          63          36
7820          67          44
7830          66          44
7840          67          45
7850          71          47
7860          69          45
7870          71          48
7880          76          40
7890          67          55
7900          70          51
7910          67          43
7920          68          47
7930          66          42
7940          73          44
7950          70          40
7960          68          42
7970          71          44
7980          65          43
7990          66          53
8000          67          50
8010          70          41
8020          66          43
8030          63          38
8040          69          42
8050          74          46
8060          66          38
8070          63          43
8080          65          39
8090          66          39
8100          63          45
8110          68          39
8120          67          35
8130          65          41
8140          65          38
8150          64          37
8160          64          41
8170          60          52
8180          63          41
8190          69          37
8200          65          39
8210          66          36
8220          63          44
8230          63          42
8240          68          40
8250          65          43
8260          70          39
8270          67          48
8280          62          45
8290          62          40
8300          68          45
8310          70          39
8320          64          37
8330          60          41
8340          69          40
8350          63          38
8360          63          37
8370          62          39
8380          62          45
8390          66          38
8400          70          37
8410          65          45
8420          66          43
8430          63          39
8440          67          36
8450          67          33
8460          68          40
8470          69          41
8480          67          43
8490          69          41
8500          69          36
8510          64          41
8520          67          42
8530          65          41
8540          66          38
8550          66          50
8560          62          42
8570          69          44
8580          69          41
8590          66          43
8600          70          44
8610          74          47
8620          70          47
8630          70          49
8640          72          44
8650          68          45
8660          70          41
8670          70          43
8680          71          48
8690          68          37
8700          65          44
8710          68          48
8720          70          48
8730          67          50
8740          66          42
8750          74          45
8760          70          49
8770          68          40
8780          69          43
8790          65          46
8800          69          43
8810          66          42
8820          74          44
8830          70          42
8840          67          37
8850          70          45
8860          70          40
8870          65          49
8880          66          45
8890          69          43
8900          64          41
8910          64          50
8920          66          47
8930          68          51
8940          73          46
8950          66          49
8960          68          44
8970          71          41
8980          68          59
8990          66          53
9000          66          48
9010          64          46
9020          73          42
9030          67          47
9040          69          43
9050          68          45
9060          67          47
9070          64          42
9080          70          45
9090          63          41
9100          68          48
9110          70          45
9120          70          41
9130          68          50
9140          66          41
9150          68          48
9160          67          41
9170          65          45
9180          63          47
9190          62          48
9200          61          38
9210          60          44
9220          63          45
9230          66          38
9240          59          47
9250          59          44
9260          61          44
9270          64          42
9280          62          41
9290          62          43
9300          65          45
9310          67          45
9320          64          33
9330          64          40
9340          63          40
9350          64          47
9360          66          36
9370          65          38
9380          63          39
9390          65          40
9400          65          43
9410          63          43
9420          65          46
9430          64          41
9440          67          49
9450          68          44
9460          67          40
9470          66          53
9480          70          44
9490          64          49
9500          62          44
9510          58          41
9520          62          43
9530          58          38
9540          65          39
9550          63          36
9560          63          35
9570          64          40
9580          62          35
9590          60          34
9600          57          38
9610          61          38
9620          62          36
9630          59          47
9640          57          36
9650          63          35
9660          65          37
9670          66          34
9680          60          43
9690          67          35
9700          65          43
9710          64          30
9720          63          38
9730          65          38
9740          63          37
9750          64          41
9760          62          38
9770          65          39
9780          61          35
9790          57          33
9800          64          34
9810          62          36
9820          67          32
9830          60          45
9840          60          37
9850          64          32
9860          68          36
9870          65          36
9880          64          37
9890          66          41
9900          69          43
9910          67          42
9920          63          37
9930          63          38
9940          62          38
9950          66          37
9960          71          38
9970          66          43
9980          64          38
9990          66          35
10000          69          33
