Time   C(t)   
ps   
0           1           1  4.54547e-10    0.024686
10    0.755172    0.834536    -1.54129   0.0136672
20    0.726655    0.815264    -1.40556  0.00264847
30    0.702202    0.798738   -0.686434  0.00214467
40    0.683762    0.786275   -0.414007  0.00171161
50     0.66797    0.775602   -0.415747  0.00158576
60    0.652046     0.76484  -0.00461564  0.00137957
70    0.640379    0.756955    -1.23921  0.00119048
80    0.628237    0.748749    -1.61655   0.0013053
90    0.614273    0.739311   -0.588986  0.00125531
100    0.603131    0.731781   -0.761422  0.000960237
110    0.595068    0.726332   -0.796391  0.000972387
120    0.583683    0.718638   -0.864389  0.000954118
130    0.575985    0.713436    -1.24206  0.000808156
140     0.56752    0.707714   -0.181333  0.000882629
150    0.558333    0.701505    -1.03776  0.000899473
160     0.54953    0.695556   -0.627032  0.000818259
170    0.541968    0.690445   -0.250669  0.000739366
180    0.534743    0.685563    -1.10773  0.000667715
190    0.528613     0.68142     -1.9991  0.000661525
200    0.521513    0.676621   -0.834738  0.000781649
210     0.51298    0.670855    -1.48627  0.000828752
220    0.504937    0.665419    -1.58833  0.000805128
230    0.496878    0.659972   -0.937671  0.000502557
240    0.494886    0.658626   -0.665044  0.000448035
250    0.487917    0.653916  -0.0820121  0.000573176
260    0.483423    0.650878   -0.733209  0.00042699
270    0.479377    0.648144   -0.939578  0.000422812
280    0.474967    0.645163     1.18367  0.00043641
290    0.470649    0.642246    0.840307  0.000470422
300    0.465558    0.638805     1.49053  0.000407557
310    0.462498    0.636737      1.6617  0.000500566
320    0.455547    0.632039     1.93603  0.000557633
330    0.451345    0.629199    0.840106  0.000459054
340    0.446366    0.625834     1.62703  0.000365092
350    0.444044    0.624265      1.1814  0.000242753
360    0.441511    0.622553    0.154007  0.000248416
370    0.439075    0.620907     1.89963  0.000308093
380    0.435349    0.618388     1.28326  0.000455426
390    0.429967    0.614751      1.0098  0.00030164
400    0.429316    0.614311    0.289601  0.000305094
410    0.423865    0.610627    0.940163  0.000390722
420    0.421502     0.60903    0.151532  0.000244331
430    0.418978    0.607324    0.049368  0.000301743
440    0.415467    0.604951   -0.464797  0.000483696
450    0.409304    0.600787    -0.15603  0.000297862
460    0.409509    0.600925    -2.00726  0.000272836
470    0.403848    0.597099   -0.568365  0.000449845
480    0.400513    0.594845    -1.32283  0.000344239
490    0.396963    0.592446    -1.52846  0.000316295
500    0.394187    0.590569   -0.398605  0.00024659
510    0.392031    0.589113   -0.775269  0.000275874
520    0.388669    0.586841   -0.193341  0.000203234
530    0.387966    0.586366   -0.296542  0.000261319
540    0.383443    0.583308   -0.672503  0.000324532
550    0.381476    0.581979    -0.60494  0.000322734
560    0.376988    0.578946  -0.0565086  0.000320655
570    0.375063    0.577645    -1.11934  0.000198017
580    0.373028     0.57627   -0.126547  0.00031677
590    0.368727    0.573363     1.68878  0.000235702
600    0.368314    0.573084     1.10645  -6.01858e-06
610    0.368847    0.573444   -0.640845  0.000215617
620    0.364001    0.570169    0.592581  0.00033727
630    0.362102    0.568886  -0.0929491  0.000314358
640    0.357714     0.56592    0.455148  0.00041016
650    0.353899    0.563342     1.51754  0.000257412
660    0.352566    0.562441     1.03774  0.000295216
670    0.347995    0.559351    0.284451  0.000229314
680     0.34798    0.559341   -0.298749  8.38846e-05
690    0.346317    0.558217   -0.402016  0.000163767
700    0.344704    0.557128   -0.709713  0.000220066
710    0.341916    0.555243   -0.676048  0.000289823
720    0.338908     0.55321   -0.573249  0.000295758
730       0.336    0.551245   -0.401783  0.000267008
740    0.333568    0.549601    0.453776   0.0001499
750    0.333002    0.549219   -0.128319  0.000187822
760    0.329811    0.547062   -0.333417  0.000247079
770    0.328061    0.545879    -1.32781  0.000371155
780    0.322388    0.542046   -0.128118  0.00024813
790    0.323098    0.542525   -0.506287  0.00027054
800    0.316977    0.538389   -0.266021  0.000480789
810    0.313482    0.536027   -0.780253  0.000166611
820    0.313645    0.536137    -1.60228  0.000186071
830    0.309761    0.533512    -1.49931  0.000248373
840    0.308678     0.53278    -1.60268  0.000146292
850    0.306835    0.531534    -2.76784  0.000108667
860    0.306504    0.531311    -2.39108  0.000176764
870      0.3033    0.529145    -2.35634  0.00026651
880    0.301174    0.527708    -1.91202  0.000261746
890    0.298065    0.525607    -1.43245  0.000311223
900     0.29495    0.523502    -2.52865  0.000254704
910    0.292971    0.522164    -1.98062  0.000127259
920    0.292405    0.521782    -3.55698  0.000119431
930    0.290582     0.52055    -3.24875  0.000283496
940    0.286735     0.51795    -2.80295  0.000119957
950    0.288183    0.518928    -2.29015  8.76635e-05
960    0.284981    0.516765    -2.56418  0.00032327
970    0.281718    0.514559    -2.73512  0.000175837
980    0.281465    0.514388    -3.14688  0.000137962
990    0.278958    0.512694    -3.00945  0.000267382
1000    0.276117    0.510774    -1.81042  0.000188117
1010    0.275196    0.510151    -2.87242  0.000144532
1020    0.273226     0.50882    -2.52972  5.65246e-05
1030    0.274066    0.509387    -2.46239  0.000153492
1040    0.270157    0.506745    -4.00304  0.000225446
1050    0.269557     0.50634    -2.87285  7.94321e-05
1060    0.268568    0.505672    -2.25689  0.000176582
1070    0.266025    0.503953    -2.35959  0.000143598
1080    0.265696    0.503731    -2.42799  3.29539e-05
1090    0.265366    0.503508    -3.28442  4.13671e-05
1100    0.264869    0.503172    -3.07935  3.86462e-05
1110    0.264593    0.502985    -3.86731  8.61391e-05
1120    0.263146    0.502007    -4.51825  0.000236939
1130    0.259854    0.499783    -3.04502  0.000159146
1140    0.259963    0.499856    -4.07255  7.02202e-05
1150     0.25845    0.498834    -3.42185  0.000129063
1160    0.257382    0.498112    -4.65481  8.45388e-05
1170    0.256759    0.497691    -3.07975  0.000227861
1180    0.252824    0.495032    -2.70252  0.000256278
1190    0.251634    0.494227    -2.42892  9.95249e-05
1200    0.250834    0.493687    -3.04559  6.31943e-05
1210     0.25037    0.493373    -2.87422  0.000173291
1220    0.247368    0.491344    -2.08666  0.000198905
1230    0.246392    0.490684    -3.31975  0.000196663
1240    0.243435    0.488686    -3.52475  0.000295997
1250    0.240472    0.486683    -2.60083  0.000191893
1260    0.239597    0.486092    -2.49809  0.000198117
1270    0.236509    0.484005    -2.08733  0.000243854
1280     0.23472    0.482796    -2.63579  0.000184826
1290    0.232813    0.481507     -2.0191  0.000171021
1300    0.231299    0.480484    -1.77957  0.000239788
1310    0.228017    0.478266     -2.2245  0.000328618
1320    0.224727    0.476043    -2.42943  0.00022947
1330    0.223428    0.475164     -2.3616  7.86751e-05
1340    0.223154    0.474979    -1.43754  0.000173317
1350    0.219961    0.472822    -1.67757  0.000213648
1360    0.218881    0.472091    -1.06117  0.00020567
1370    0.215848    0.470042     -2.0196  0.000160083
1380    0.215679    0.469928   -0.787511  0.000172134
1390    0.212405    0.467715      -1.369  0.000209765
1400    0.211484    0.467092    -2.94506  0.000187331
1410    0.208659    0.465183     -2.0544  0.000164594
1420    0.208192    0.464867    -1.88314  4.67204e-05
1430    0.207724    0.464551     -2.6368  4.39495e-05
1440    0.207313    0.464273    -2.84223  0.000104848
1450    0.205627    0.463134    -2.53373  0.000151361
1460    0.204286    0.462228    -1.98614  6.76163e-05
1470    0.204275     0.46222    -1.50667  -4.25167e-05
1480    0.205136    0.462802    -2.12394  -1.93104e-05
1490    0.204661    0.462481    -2.39784  0.000201824
1500      0.2011    0.460074    -2.05524  0.00019045
1510    0.200852    0.459907    -1.98727  0.000223201
1520    0.196635    0.457057    -2.53413  0.000264394
1530    0.195564    0.456333    -2.12377  0.000127729
1540    0.194081    0.455331    -1.47274  0.00015436
1550    0.192477    0.454247    -1.71257  9.31636e-05
1560    0.192218    0.454072    -1.67821  0.000114006
1570    0.190197    0.452706    -2.12377  0.000120041
1580    0.189817    0.452449    -2.46697  8.21814e-05
1590    0.188553    0.451595     -3.5282   0.0002031
1600    0.185755    0.449704     -2.4325  0.000120905
1610    0.186135    0.449961     -2.6723  0.00011844
1620    0.183386    0.448103    -2.29601  0.000319578
1630    0.179744    0.445641    -1.84984  0.000237389
1640    0.178638    0.444894    -2.22694  0.000164038
1650    0.176463    0.443424    -2.39817   6.053e-05
1660    0.177428    0.444076     -2.9121  -1.34185e-05
1670    0.176731    0.443605     -3.0838  0.000111369
1680      0.1752    0.442571    -1.95408  6.69196e-05
1690    0.175393    0.442701    -3.63317  0.000198361
1700    0.171233    0.439889    -2.05678  0.000264251
1710    0.170108    0.439129    -1.16698   8.277e-05
1720    0.169578    0.438771    -2.98237  0.000184737
1730    0.166413    0.436632    -2.19454   0.0001371
1740    0.166836    0.436917    -2.12598  5.06721e-05
1750      0.1654    0.435947     -3.4961  0.000278894
1760    0.161258    0.433148    -2.22834  0.000204246
1770    0.161315    0.433186    -2.53681  6.65247e-05
1780    0.159927    0.432249    -1.78378  0.000202231
1790     0.15727    0.430453    -2.87977  0.000154366
1800     0.15684    0.430162    -2.64048  0.000127681
1810    0.154717    0.428727    -2.05852  0.000218651
1820    0.152467    0.427207    -2.94807  0.000182839
1830     0.15106    0.426256    -2.33225  0.00011965
1840    0.150074    0.425589    -2.26411  8.95962e-05
1850    0.149268    0.425044    -3.42851  0.000181031
1860    0.146453    0.423142    -3.15391  0.00017222
1870    0.145823    0.422717    -2.98368  0.000172787
1880    0.142998    0.420807    -2.84628  0.000246295
1890    0.140897    0.419388    -2.50361  0.000207221
1900    0.138853    0.418006    -2.57245  8.54067e-05
1910    0.139189    0.418233    -1.61372  0.000128651
1920     0.13628    0.416267    -2.19568  0.000211556
1930    0.134958    0.415374    -1.54492  7.09407e-05
1940    0.134861    0.415308    -1.33982  0.00010193
1950     0.13292    0.413996    -2.09342  0.000117461
1960    0.132512     0.41372    -2.60772  0.00016716
1970    0.129576    0.411736    -2.94988  0.000207538
1980    0.128361    0.410915    -1.61369  0.000121661
1990    0.127143    0.410092    -2.81275  1.06007e-05
2000    0.128149    0.410772    -2.95078  9.1292e-05
2010    0.125317    0.408858    -2.74458  0.000140905
2020    0.125331    0.408867    -2.26579  0.000122795
2030    0.122861    0.407198    -2.43638  0.00017579
2040    0.121815    0.406491    -2.40279  0.000142087
2050     0.12002    0.405278    -2.71065  0.000182921
2060    0.118157    0.404019    -1.88842  0.000149063
2070    0.117038    0.403263    -2.12862  0.000136976
2080    0.115417    0.402167    -2.71112  0.000124772
2090    0.114543    0.401576    -2.64268  0.000137662
2100    0.112664    0.400306    -2.91668  7.20896e-05
2110    0.113101    0.400602    -2.60909  0.000138376
2120    0.109897    0.398436    -1.88966  0.000257976
2130    0.107942    0.397115    -1.54729  0.000208334
2140     0.10573     0.39562    -1.99296  0.000211998
2150    0.103702    0.394249    -1.85599  0.000237802
2160    0.100974    0.392406    -1.44469  0.000153027
2170    0.100641    0.392181    -1.37613  6.8152e-05
2180   0.0996109    0.391485    -2.40372  5.24491e-05
2190   0.0995922    0.391472    -1.37676  7.80053e-05
2200   0.0980508     0.39043   -0.897735  0.000163871
2210   0.0963148    0.389257     -1.2745  9.75028e-05
2220   0.0961008    0.389112   -0.418339  7.23653e-05
2230   0.0948675    0.388279    -1.48023  0.000196847
2240   0.0921639    0.386452   -0.795103  0.000229205
2250   0.0902834    0.385181   -0.658439  0.000188294
2260    0.088398    0.383906   -0.657903  0.000147141
2270   0.0873406    0.383192   -0.623871  0.000198857
2280   0.0844208    0.381219   -0.658037  0.00019286
2290   0.0834834    0.380585    -1.17213  0.000103496
2300   0.0823509     0.37982    -1.20674  0.000168102
2310   0.0801213    0.378313     -1.0011  0.000213577
2320   0.0780794    0.376933     -1.8228  0.000146402
2330   0.0771933    0.376334    -1.65227  0.000153308
2340   0.0750132    0.374861    -1.20707  0.000247439
2350   0.0722445    0.372989    -1.48063  0.000212435
2360   0.0707645    0.371989    -1.00171  0.000167646
2370   0.0688916    0.370723     -1.2072  9.33819e-05
2380   0.0688969    0.370727     -1.7554  6.77485e-05
2390   0.0675366    0.369808    -1.85813  5.80557e-05
2400   0.0677358    0.369942    -1.72124  9.41712e-05
2410   0.0656532    0.368535    -1.31027  0.000156313
2420   0.0646095    0.367829     -2.0637  5.87195e-05
2430   0.0644788    0.367741    -2.02953  0.000134214
2440   0.0619252    0.366015    -2.30326  0.000222906
2450   0.0600207    0.364728    -2.47436  0.000148049
2460   0.0589643    0.364014    -2.61119  1.04818e-05
2470   0.0598111    0.364586    -1.96113  5.34212e-05
2480   0.0578958    0.363292     -1.8925  0.000264253
2490    0.054526    0.361015    -1.31017  0.000188973
2500   0.0541164    0.360738   -0.899374  -5.81065e-05
2510   0.0556881      0.3618   -0.762877  -4.15923e-05
2520   0.0549482      0.3613   -0.454478  0.000150274
2530   0.0526826    0.359769   -0.522844  0.000170485
2540   0.0515385    0.358995   -0.831176  0.000114562
2550   0.0503914     0.35822   -0.420011  0.000194675
2560    0.047645    0.356364    -1.10474  0.000151786
2570   0.0473557    0.356169    -1.24197  4.90027e-05
2580    0.046665    0.355702    -1.51604  7.24822e-05
2590    0.045906    0.355189     -1.9273  0.000109433
2600   0.0444763    0.354223    -1.92777  0.000139825
2610   0.0431095    0.353299    -1.44834  0.000130152
2620   0.0418732    0.352463    -1.00311  6.33761e-05
2630    0.041842    0.352442    -1.37984  2.32898e-05
2640   0.0414075    0.352149   -0.523981  9.85339e-06
2650    0.041645    0.352309    -1.38034  8.74642e-05
2660   0.0396582    0.350966    -1.41404  0.000148307
2670   0.0386788    0.350304    -1.20884  -3.0374e-05
2680   0.0402656    0.351377    -1.82604  -7.76725e-05
2690   0.0402323    0.351354    -1.85981  0.000115208
2700   0.0379615     0.34982    -1.07204  4.74881e-05
2710   0.0392825    0.350712    -1.44924  8.52527e-05
2720   0.0362564    0.348667     -2.2367  0.000136246
2730   0.0365576    0.348871    -1.20918  0.000112996
2740   0.0339965     0.34714    -1.41471  0.000164299
2750   0.0332716     0.34665     -2.4765  -2.31046e-05
2760   0.0344586    0.347452    -2.85374  -3.67107e-05
2770   0.0340058    0.347146    -2.40877  -9.50936e-06
2780   0.0346488    0.347581     -2.9907  1.45542e-05
2790   0.0337147     0.34695    -1.99814  0.000162272
2800   0.0314033    0.345387    -1.99711  7.31524e-05
2810   0.0322517    0.345961    -2.47687  -9.53024e-05
2820   0.0333094    0.346676    -2.64861  0.000173636
2830    0.028779    0.343614    -2.20294  0.000222123
2840   0.0288669    0.343673    -2.13467  5.02272e-06
2850   0.0286785    0.343546    -2.34004  0.000122852
2860   0.0264099    0.342013    -2.13474  0.000147359
2870   0.0257313    0.341554    -1.62118  1.92792e-05
2880   0.0260243    0.341752   -0.902217  0.00018646
2890   0.0220021    0.339034    -1.72398  0.000270339
2900   0.0206175    0.338098    -1.31311  0.000159596
2910   0.0188102    0.336877    -1.92938  6.21547e-05
2920   0.0193744    0.337258    -1.45065  3.09892e-05
2930   0.0181904    0.336458    -2.16948  9.92836e-06
2940   0.0191759    0.337124    -1.14225  -1.44551e-05
2950   0.0184795    0.336653    -1.58731  1.7006e-05
2960   0.0188358    0.336894    -1.51891  5.93767e-05
2970    0.017292     0.33585    -2.16964  0.000179272
2980   0.0152503    0.334471    -0.90195  3.1483e-05
2990   0.0166623    0.335425    -1.51885  -7.7776e-05
3000   0.0168058    0.335522    -1.51935  6.87912e-06
3010   0.0165248    0.335332    -2.10171  2.81339e-05
3020   0.0162432    0.335142    -2.20431  0.000141825
3030   0.0136883    0.333415    -2.06671  9.58601e-05
3040    0.014326    0.333846    -1.89608  -0.000120823
3050   0.0161047    0.335048    -1.69095  -0.000110399
3060   0.0165339    0.335338    -1.48538  3.91493e-05
3070   0.0153218    0.334519    -1.38289  4.27212e-05
3080   0.0156795    0.334761    -1.14345  5.01228e-05
3090   0.0143193    0.333841    -1.21149  0.000118286
3100   0.0133138    0.333162    -1.24595  0.000107877
3110   0.0121618    0.332383    -1.34862  5.42261e-05
3120   0.0122293    0.332429   -0.492524  2.56534e-05
3130   0.0116487    0.332037    -0.90302  -5.00413e-05
3140   0.0132301    0.333105    -1.17806  0.000112518
3150  0.00939834    0.330516    -0.15006  1.11389e-05
3160   0.0130073    0.332955    -1.10989  -0.000169414
3170   0.0127866    0.332806    -1.45219  -3.59633e-05
3180   0.0137266    0.333441   -0.116897  7.60891e-06
3190   0.0126344    0.332703   -0.972957  9.12035e-05
3200   0.0119025    0.332208   -0.390795  9.5159e-05
3210   0.0107313    0.331416    -0.35596  4.91692e-07
3220   0.0118927    0.332201     0.22647  -0.000163816
3230   0.0140076    0.333631    -1.17816  -8.36894e-05
3240   0.0135665    0.333333   -0.698457  -7.1459e-06
3250   0.0141505    0.333727   -0.561526  -4.01415e-05
3260   0.0143693    0.333875   -0.424894  2.95736e-05
3270    0.013559    0.333328   -0.801759  5.90503e-05
3280   0.0131883    0.333077    0.260435  5.55644e-05
3290   0.0124477    0.332577  -0.0136629  4.0018e-06
3300   0.0131083    0.333023    0.979129  7.82502e-06
3310   0.0122912    0.332471    0.637133  -4.78496e-05
3320   0.0140653     0.33367   -0.117332  4.4959e-05
3330   0.0113921    0.331863   0.0547366  0.000152527
3340   0.0110147    0.331608    0.397268  5.26716e-05
3350   0.0103386    0.331151   -0.321994  -5.1545e-05
3360   0.0120456    0.332305   -0.390962  -0.000118694
3370   0.0127125    0.332755    0.191067  4.89503e-07
3380   0.0120358    0.332298   -0.219161  5.27973e-05
3390   0.0116565    0.332042    0.225534  8.29618e-05
3400   0.0103766    0.331177   -0.150662  7.18913e-05
3410   0.0102187     0.33107   -0.732724  -6.76885e-06
3420    0.010512    0.331268    -0.49326  4.97215e-05
3430  0.00922429    0.330398   -0.664258  9.87926e-05
3440  0.00853611    0.329933   -0.287795  0.000125582
3450  0.00671266    0.328701   -0.664526  0.000167516
3460   0.0051858    0.327669  -0.0819617  0.00010363
3470  0.00464006      0.3273   -0.356897  5.08725e-05
3480  0.00416835    0.326981   -0.253662  5.10378e-05
3490   0.0036193     0.32661   -0.562195  2.45466e-05
3500  0.00367742    0.326649   -0.698926  -2.02184e-06
3510  0.00365974    0.326637    -0.83636  -2.02404e-06
3520   0.0037179    0.326677   -0.425597  -2.02184e-06
3530  0.00370018    0.326665   -0.631129  0.000151169
3540  0.000694527    0.324633    -1.04136  0.000143741
3550  0.000825363    0.324722    -1.72639  -5.41952e-06
3560  0.000802918    0.324707   -0.904325  4.07213e-05
3570  1.0936e-05    0.324171   -0.904626  6.00601e-05
3580  -0.000398284    0.323895    -1.31572  -1.692e-05
3590  0.000349336      0.3244    -1.07566  -9.80805e-05
3600  0.00156333     0.32522   -0.802194  -1.70369e-05
3610  0.000690073     0.32463   -0.494129  0.000106869
3620  -0.000574054    0.323776   -0.870325  9.94034e-05
3630  -0.00129799    0.323287    -1.00776  3.36129e-05
3640  -0.00124631    0.323322    -1.38439  2.59863e-05
3650  -0.00181772    0.322935   -0.493862  2.6015e-05
3660  -0.00176661     0.32297   -0.494331  -8.33014e-05
3670  -0.000151694    0.324061    -0.32273  -8.73539e-05
3680  -1.9535e-05    0.324151    0.259131  6.36319e-06
3690  -0.000278957    0.323975   -0.323032  -4.07831e-05
3700  0.000796127    0.324702   -0.323031  -0.000166695
3710  0.00305495    0.326229     -1.1116  6.92829e-05
3720  -0.000589532    0.323765   -0.870894  9.27139e-05
3730  0.00120067    0.324975     0.36163  1.43822e-05
3740  -0.000877177    0.323571   -0.460331  0.000136857
3750  -0.00153647    0.323126    0.464095  7.39616e-05
3760  -0.00235641    0.322571    0.224329  0.000141723
3770  -0.00437094     0.32121     0.39593  0.000106276
3780  -0.00448193    0.321135    0.532761  -0.000100451
3790  -0.00236192    0.322568    0.463493  5.10687e-05
3800  -0.0055033    0.320445  -0.0156364  0.000158742
3810  -0.00553677    0.320422    0.464363  1.53722e-05
3820  -0.00581075    0.320237    0.532528  -8.65844e-06
3830  -0.0053636    0.320539   0.0871965  -3.2731e-05
3840  -0.00515613    0.320679   -0.255903  1.54339e-05
3850  -0.00567228     0.32033     -0.7696  0.000116165
3860  -0.00747942    0.319109    -1.79646  3.56965e-05
3870  -0.00638621    0.319848     -0.7354  3.71297e-06
3880  -0.00755368    0.319059   -0.906298  6.42934e-05
3890  -0.00767208    0.318979     -0.6324  5.24181e-05
3900  -0.00860204     0.31835    -1.38589  -4.5001e-05
3910  -0.00677206    0.319587    -1.96863  9.34547e-05
3920  -0.0104711    0.317087    -2.10486  0.000113706
3930  -0.00904618     0.31805    -1.86589  -1.20804e-05
3940  -0.0102295     0.31725    -2.03709  5.3095e-05
3950  -0.0101081    0.317333     -1.5235  2.06131e-05
3960  -0.0106418    0.316972    -1.66009  -6.14579e-05
3970  -0.00887892    0.318163    -1.90033  -6.97019e-05
3980  -0.00924775    0.317914    -1.42083  6.98937e-05
3990  -0.0102768    0.317218     -1.4204  -1.24067e-05
4000  -0.00899962    0.318082    -2.07199  2.90489e-05
4010  -0.0108578    0.316826    -1.76343  -4.21787e-06
4020  -0.00891526    0.318139    -2.10633    2.51e-05
4030  -0.0113598    0.316487   -0.770536  0.000124455
4040  -0.0114044    0.316456   -0.770336  9.18077e-05
4050  -0.0131959    0.315246    -1.48983  0.000112793
4060  -0.0136602    0.314932    -1.79786  8.96272e-06
4070  -0.0133752    0.315124    -1.49003  7.18748e-07
4080  -0.0136746    0.314922    -2.38033  4.67164e-05
4090  -0.0143095    0.314493    -2.17496  3.00653e-05
4100  -0.0142759    0.314516    -2.31219  8.48337e-05
4110  -0.0160062    0.313346    -1.62676  8.07526e-05
4120   -0.015891    0.313424    -1.38707  -4.94702e-05
4130  -0.0150168    0.314015    -1.28463  -4.53515e-05
4140  -0.0149839    0.314037   -0.907936  -2.02074e-05
4150  -0.0146126    0.314288    -1.62743  0.000106878
4160  -0.0171215    0.312593    -0.25714  2.6348e-05
4170  -0.0151396    0.313932   -0.736705  -6.24722e-05
4180   -0.015872    0.313437    -0.94237  7.76349e-05
4190  -0.0166923    0.312883   -0.359874  9.49628e-05
4200  -0.0177713    0.312153   -0.325473  6.10721e-05
4210  -0.0179137    0.312057   -0.908104  -1.99803e-05
4220  -0.0173717    0.312423   -0.873804  -3.28457e-05
4230  -0.0172568    0.312501    -1.07907  9.58889e-05
4240  -0.0192895    0.311127    -1.04453  -4.16848e-05
4250  -0.0164231    0.313065     -1.3188  -0.000131938
4260  -0.0166507    0.312911   -0.736839  6.59845e-05
4270  -0.0177428    0.312173    -1.42177  5.57825e-06
4280  -0.0167623    0.312835    -1.59317  -0.000132897
4290  -0.0150849    0.313969   0.0848221  -2.47736e-05
4300  -0.0162668     0.31317   -0.223577  0.000183633
4310  -0.0187575    0.311487    -1.01104  7.52559e-05
4320  -0.0177719    0.312153   -0.394508  -9.43829e-05
4330  -0.0168699    0.312763   -0.771372  -4.66282e-05
4340  -0.0168394    0.312783   -0.291876  1.00651e-05
4350  -0.0170712    0.312627   0.0849222  1.44594e-05
4360  -0.0171285    0.312588  -0.0178438  -3.82034e-05
4370  -0.0163071    0.313143   -0.360643  -2.50582e-05
4380  -0.0166274    0.312927   -0.189578  -9.58227e-05
4390  -0.0143906    0.314438   -0.634574  -4.29174e-05
4400   -0.015769    0.313507   0.0163225  0.000138103
4410  -0.0171527    0.312571    0.187755  2.7737e-05
4420  -0.0163238    0.313132   -0.634641  -0.00012302
4430  -0.0146923    0.314234   -0.566142  -7.88807e-05
4440  -0.0147462    0.314198    0.050455  -1.24375e-05
4450  -0.0144436    0.314402    0.529685  5.9015e-05
4460  -0.0159265      0.3134    0.118921  0.000148563
4470  -0.0174148    0.312394    0.324554  3.70283e-05
4480   -0.016667      0.3129   -0.223242  -3.89796e-05
4490  -0.0166352    0.312921    0.393388  -4.81936e-05
4500  -0.0157032    0.313551    -0.60014  1.29202e-06
4510  -0.0166611    0.312904   -0.531507  9.59682e-05
4520  -0.0176225    0.312254    -0.60024  6.91639e-05
4530  -0.0180443    0.311969   -0.223911  0.000123846
4540  -0.0200994     0.31058   0.0164559  9.23744e-05
4550  -0.0198918     0.31072   -0.703174  1.95345e-06
4560  -0.0201385    0.310554   -0.600609  9.30666e-05
4570  -0.0217532    0.309462    -0.15481  0.000102402
4580  -0.0221866    0.309169    0.392819  2.97082e-05
4590  -0.0223473    0.309061  -0.0867449  -2.05624e-05
4600  -0.0217753    0.309447   -0.737273  5.28811e-05
4610   -0.023405    0.308346    -0.36101  0.000218456
4620  -0.0261444    0.306495   -0.257509  0.000103972
4630  -0.0254844    0.306941   -0.497107  7.69778e-05
4640   -0.027684    0.305454   -0.702772  -4.78959e-05
4650  -0.0245265    0.307588    0.118687  -0.000163428
4660  -0.0244154    0.307663  -0.0183122  8.17492e-05
4670  -0.0261615    0.306483   -0.600442  0.000123749
4680  -0.0268904     0.30599    -1.01117  -0.000118023
4690   -0.023801    0.308078   -0.977474  -4.3409e-05
4700  -0.0260222    0.306577   -0.669175  0.000166418
4710  -0.0271293    0.305829    -1.11447  7.81178e-05
4720  -0.0275846    0.305521   -0.326443  -6.0413e-06
4730  -0.0270085    0.305911   -0.121313  3.43956e-06
4740  -0.0276534    0.305475   0.0155191  9.76064e-05
4750  -0.0289606    0.304591   -0.121413  0.000206526
4760  -0.0317839    0.302683    -0.25781  0.000112531
4770  -0.0312113     0.30307   -0.189845  4.21941e-05
4780  -0.0326278    0.302113   -0.121245  0.00021316
4790  -0.0354745    0.300189    0.186952  9.01034e-05
4800  -0.0344299    0.300895   -0.224045  -4.26771e-05
4810  -0.0346209    0.300766   -0.326811  6.69193e-05
4820  -0.0357682     0.29999   -0.497977  -4.3001e-05
4830  -0.0337609    0.301347   -0.326777  -0.000186733
4840  -0.0320336    0.302514    -0.29318  -4.8143e-05
4850   -0.032798    0.301998  -0.0187806  -4.37552e-05
4860  -0.0311585    0.303106  -0.0190815  -0.000106401
4870    -0.03067    0.303436    0.185815  0.000110553
4880  -0.0333695    0.301612    0.494448  9.61511e-05
4890   -0.032593    0.302136   -0.293314  5.32031e-05
4900  -0.0344336    0.300892    -0.25878  3.85694e-05
4910  -0.0333644    0.301615   0.0494514  1.95151e-05
4920  -0.0348239    0.300629   -0.430213  -1.48121e-05
4930  -0.0330682    0.301815   0.0494179  -2.43349e-05
4940  -0.0343372    0.300958    0.666015  2.4271e-05
4950  -0.0335536    0.301487     1.00811  -5.39836e-05
4960  -0.0332575    0.301687   0.0833836  -5.91803e-05
4970    -0.03237    0.302287    0.391548  0.000127961
4980  -0.0358167    0.299958  -0.0874472  0.000187317
4990  -0.0361163    0.299755  -0.0531809  0.000246674
