Time   Number   
ps   
0          32          38
10          28          40
20          30          40
30          30          36
40          32          38
50          33          41
60          31          35
70          32          38
80          30          38
90          35          39
100          34          44
110          35          39
120          31          41
130          36          40
140          36          44
150          33          41
160          34          38
170          33          41
180          32          46
190          33          43
200          34          40
210          33          45
220          32          34
230          30          38
240          35          45
250          35          41
260          32          40
270          34          38
280          34          40
290          31          43
300          34          42
310          35          39
320          33          33
330          34          36
340          30          36
350          32          38
360          34          40
370          32          36
380          25          37
390          32          34
400          35          37
410          35          41
420          31          37
430          29          39
440          32          34
450          29          37
460          31          33
470          32          36
480          28          34
490          26          38
500          29          41
510          30          38
520          30          44
530          24          40
540          27          33
550          30          36
560          27          33
570          26          36
580          32          34
590          31          41
600          29          37
610          30          36
620          30          32
630          34          38
640          29          35
650          26          36
660          33          37
670          31          39
680          30          36
690          26          36
700          29          37
710          32          38
720          30          44
730          33          37
740          31          37
750          31          39
760          33          39
770          33          43
780          34          44
790          33          45
800          37          39
810          32          40
820          34          42
830          33          39
840          34          38
850          35          43
860          32          40
870          36          42
880          34          42
890          38          44
900          35          41
910          32          46
920          34          42
930          32          38
940          35          41
950          33          43
960          36          44
970          32          40
980          33          43
990          29          35
1000          30          38
1010          34          40
1020          30          40
1030          32          34
1040          33          37
1050          37          43
1060          35          43
1070          31          43
1080          34          34
1090          29          39
1100          31          39
1110          32          36
1120          28          40
1130          31          37
1140          36          40
1150          32          38
1160          30          40
1170          31          41
1180          29          37
1190          32          42
1200          36          38
1210          31          37
1220          33          43
1230          35          39
1240          32          40
1250          31          35
1260          31          37
1270          27          37
1280          30          36
1290          24          32
1300          30          36
1310          30          40
1320          34          40
1330          32          36
1340          28          36
1350          33          33
1360          31          37
1370          30          34
1380          33          37
1390          33          45
1400          34          38
1410          31          37
1420          36          38
1430          32          36
1440          34          38
1450          31          39
1460          30          36
1470          32          38
1480          33          43
1490          33          39
1500          34          40
1510          35          41
1520          32          40
1530          36          40
1540          32          42
1550          32          40
1560          31          33
1570          29          35
1580          32          36
1590          34          36
1600          31          37
1610          28          38
1620          30          36
1630          31          39
1640          34          40
1650          29          41
1660          34          38
1670          32          38
1680          35          41
1690          33          37
1700          33          45
1710          32          40
1720          33          45
1730          40          44
1740          35          43
1750          38          44
1760          38          42
1770          36          38
1780          37          43
1790          35          45
1800          39          41
1810          34          46
1820          34          42
1830          36          40
1840          36          42
1850          32          44
1860          31          47
1870          37          43
1880          31          41
1890          30          44
1900          31          41
1910          33          43
1920          32          40
1930          36          40
1940          36          42
1950          34          38
1960          31          37
1970          33          41
1980          30          38
1990          32          48
2000          31          43
2010          34          38
2020          31          37
2030          31          39
2040          34          34
2050          31          37
2060          33          43
2070          32          40
2080          34          36
2090          28          44
2100          30          36
2110          36          40
2120          32          38
2130          32          38
2140          32          36
2150          36          38
2160          33          35
2170          37          43
2180          28          44
2190          35          39
2200          31          35
2210          34          42
2220          32          38
2230          32          42
2240          29          37
2250          35          37
2260          31          39
2270          34          48
2280          32          38
2290          31          43
2300          32          38
2310          32          38
2320          32          36
2330          30          36
2340          31          35
2350          30          40
2360          31          39
2370          31          37
2380          32          40
2390          27          39
2400          28          40
2410          33          35
2420          28          44
2430          31          37
2440          33          39
2450          31          35
2460          30          36
2470          28          38
2480          29          43
2490          35          41
2500          33          37
2510          37          37
2520          31          43
2530          31          37
2540          34          36
2550          33          39
2560          32          38
2570          30          36
2580          33          37
2590          35          41
2600          31          35
2610          33          39
2620          32          38
2630          32          36
2640          32          38
2650          31          37
2660          28          40
2670          31          37
2680          28          40
2690          29          37
2700          33          41
2710          30          42
2720          34          38
2730          33          43
2740          30          42
2750          36          40
2760          34          38
2770          33          39
2780          34          40
2790          35          37
2800          31          35
2810          32          34
2820          29          37
2830          30          32
2840          32          34
2850          35          35
2860          32          40
2870          31          35
2880          35          37
2890          30          38
2900          31          39
2910          30          34
2920          34          36
2930          32          38
2940          27          39
2950          27          39
2960          33          35
2970          33          39
2980          34          34
2990          35          41
3000          32          40
3010          31          37
3020          32          42
3030          30          36
3040          31          41
3050          33          43
3060          32          42
3070          33          39
3080          30          40
3090          35          39
3100          34          38
3110          31          35
3120          34          38
3130          32          46
3140          31          43
3150          28          36
3160          28          34
3170          29          41
3180          33          39
3190          29          37
3200          30          38
3210          27          39
3220          31          37
3230          31          43
3240          31          39
3250          33          37
3260          28          38
3270          28          36
3280          32          36
3290          28          42
3300          29          39
3310          28          36
3320          33          39
3330          28          34
3340          34          40
3350          32          40
3360          32          36
3370          31          37
3380          28          36
3390          32          36
3400          29          35
3410          33          39
3420          29          39
3430          33          41
3440          33          41
3450          35          39
3460          35          39
3470          34          42
3480          32          40
3490          34          40
3500          34          38
3510          34          38
3520          32          42
3530          32          42
3540          32          44
3550          32          40
3560          31          41
3570          35          39
3580          36          38
3590          32          40
3600          31          45
3610          33          35
3620          31          37
3630          30          42
3640          29          35
3650          32          42
3660          32          42
3670          31          41
3680          30          42
3690          33          43
3700          31          39
3710          28          40
3720          31          37
3730          32          36
3740          29          41
3750          31          41
3760          29          39
3770          28          38
3780          32          34
3790          29          43
3800          33          37
3810          32          36
3820          30          34
3830          35          35
3840          32          42
3850          30          36
3860          31          43
3870          27          37
3880          32          38
3890          32          38
3900          33          39
3910          33          39
3920          32          36
3930          33          39
3940          33          41
3950          31          43
3960          30          44
3970          36          38
3980          30          42
3990          32          36
4000          32          42
4010          28          42
4020          30          42
4030          29          37
4040          30          40
4050          29          39
4060          29          35
4070          31          39
4080          30          36
4090          28          34
4100          30          36
4110          28          44
4120          29          37
4130          31          35
4140          28          34
4150          26          36
4160          25          35
4170          27          37
4180          29          39
4190          31          35
4200          28          36
4210          30          34
4220          33          35
4230          30          36
4240          26          32
4250          26          36
4260          28          38
4270          29          37
4280          29          41
4290          27          41
4300          32          42
4310          26          34
4320          29          37
4330          30          38
4340          28          38
4350          29          35
4360          29          37
4370          32          38
4380          32          32
4390          28          40
4400          28          38
4410          33          39
4420          31          41
4430          28          42
4440          32          40
4450          32          34
4460          27          41
4470          28          34
4480          26          44
4490          34          44
4500          33          41
4510          31          43
4520          33          33
4530          29          37
4540          32          34
4550          35          37
4560          33          41
4570          32          36
4580          34          42
4590          30          38
4600          32          36
4610          27          35
4620          30          36
4630          31          41
4640          30          34
4650          29          37
4660          32          42
4670          33          33
4680          33          41
4690          35          41
4700          33          43
4710          33          39
4720          36          40
4730          35          41
4740          35          43
4750          36          42
4760          36          42
4770          32          42
4780          35          41
4790          32          36
4800          25          37
4810          32          40
4820          28          34
4830          31          39
4840          33          37
4850          25          43
4860          32          40
4870          32          40
4880          35          41
4890          34          38
4900          30          36
4910          28          34
4920          31          37
4930          33          39
4940          32          40
4950          34          40
4960          32          42
4970          28          38
4980          29          35
4990          33          41
5000          34          38
5010          33          37
5020          36          38
5030          30          44
5040          30          38
5050          33          33
5060          33          35
5070          32          38
5080          33          39
5090          32          38
5100          25          49
5110          30          40
5120          29          37
5130          31          35
5140          30          38
5150          33          37
5160          29          39
5170          32          38
5180          35          41
5190          30          38
5200          26          38
5210          33          37
5220          34          38
5230          32          40
5240          30          38
5250          31          37
5260          35          39
5270          33          37
5280          30          36
5290          32          42
5300          34          42
5310          33          35
5320          36          40
5330          35          41
5340          33          39
5350          31          43
5360          34          38
5370          31          37
5380          34          44
5390          33          41
5400          32          42
5410          32          40
5420          34          38
5430          33          39
5440          34          40
5450          32          36
5460          32          34
5470          32          38
5480          30          32
5490          32          42
5500          32          42
5510          32          44
5520          35          41
5530          32          46
5540          33          41
5550          34          40
5560          31          35
5570          34          38
5580          33          39
5590          35          37
5600          31          39
5610          35          41
5620          32          40
5630          37          39
5640          37          41
5650          35          39
5660          30          38
5670          33          37
5680          31          47
5690          30          42
5700          32          42
5710          34          42
5720          33          39
5730          32          40
5740          34          34
5750          31          39
5760          31          35
5770          29          39
5780          29          41
5790          30          36
5800          30          36
5810          31          37
5820          32          46
5830          31          41
5840          30          38
5850          31          41
5860          27          37
5870          31          35
5880          31          39
5890          30          32
5900          28          34
5910          28          32
5920          28          36
5930          22          32
5940          28          38
5950          27          35
5960          33          35
5970          28          42
5980          29          31
5990          24          32
6000          24          44
6010          26          38
6020          21          35
6030          23          35
6040          29          31
6050          26          36
6060          25          37
6070          25          31
6080          30          32
6090          26          36
6100          33          37
6110          33          33
6120          27          31
6130          29          35
6140          23          31
6150          25          35
6160          27          31
6170          27          37
6180          25          31
6190          26          32
6200          28          34
6210          29          33
6220          26          32
6230          28          30
6240          27          37
6250          28          34
6260          28          38
6270          27          35
6280          26          36
6290          23          33
6300          27          33
6310          25          29
6320          26          34
6330          22          28
6340          25          33
6350          22          36
6360          27          37
6370          21          41
6380          28          32
6390          29          33
6400          26          32
6410          28          34
6420          27          37
6430          23          35
6440          26          40
6450          23          29
6460          23          31
6470          28          36
6480          28          34
6490          27          41
6500          30          38
6510          32          34
6520          30          36
6530          26          30
6540          32          36
6550          27          33
6560          31          35
6570          31          33
6580          30          36
6590          30          30
6600          27          33
6610          25          37
6620          26          34
6630          26          34
6640          28          36
6650          23          35
6660          29          37
6670          29          33
6680          24          36
6690          26          32
6700          24          38
6710          27          35
6720          29          37
6730          24          38
6740          25          25
6750          30          32
6760          25          31
6770          29          33
6780          29          39
6790          28          34
6800          26          32
6810          27          41
6820          29          37
6830          30          36
6840          28          38
6850          29          37
6860          32          40
6870          31          33
6880          30          36
6890          27          29
6900          28          36
6910          26          38
6920          30          36
6930          29          33
6940          27          35
6950          24          28
6960          31          33
6970          30          34
6980          28          38
6990          26          36
7000          31          31
7010          26          34
7020          23          31
7030          28          34
7040          27          33
7050          25          31
7060          28          38
7070          24          32
7080          26          32
7090          23          37
7100          27          37
7110          23          35
7120          31          35
7130          29          39
7140          30          38
7150          28          34
7160          27          31
7170          28          34
7180          28          38
7190          22          34
7200          29          33
7210          32          32
7220          31          33
7230          24          30
7240          27          33
7250          25          39
7260          29          35
7270          29          31
7280          27          33
7290          28          38
7300          29          33
7310          29          41
7320          28          38
7330          27          37
7340          28          38
7350          27          37
7360          29          37
7370          29          37
7380          28          36
7390          28          34
7400          32          44
7410          27          35
7420          27          35
7430          27          35
7440          27          37
7450          30          34
7460          30          34
7470          24          36
7480          25          35
7490          30          38
7500          27          33
7510          26          28
7520          29          37
7530          28          36
7540          24          30
7550          27          29
7560          32          34
7570          29          35
7580          30          36
7590          27          41
7600          24          36
7610          32          40
7620          35          43
7630          34          46
7640          34          42
7650          32          42
7660          30          34
7670          27          41
7680          35          41
7690          30          40
7700          30          42
7710          33          37
7720          32          38
7730          32          42
7740          32          34
7750          28          38
7760          29          41
7770          30          36
7780          28          36
7790          31          35
7800          31          41
7810          29          39
7820          27          41
7830          33          39
7840          26          34
7850          31          37
7860          22          34
7870          30          36
7880          28          34
7890          31          35
7900          26          36
7910          30          40
7920          26          36
7930          28          34
7940          27          33
7950          33          37
7960          34          38
7970          31          33
7980          25          33
7990          30          36
8000          29          37
8010          26          40
8020          30          34
8030          29          37
8040          31          37
8050          28          32
8060          30          40
8070          25          35
8080          27          33
8090          28          32
8100          28          30
8110          28          28
8120          28          36
8130          31          35
8140          28          38
8150          31          35
8160          28          34
8170          26          38
8180          28          30
8190          27          29
8200          27          37
8210          28          34
8220          27          37
8230          27          29
8240          28          32
8250          29          35
8260          31          43
8270          25          41
8280          30          34
8290          27          41
8300          26          36
8310          30          40
8320          29          35
8330          28          36
8340          27          33
8350          26          38
8360          27          35
8370          25          31
8380          27          37
8390          31          35
8400          29          33
8410          25          37
8420          25          35
8430          26          32
8440          27          35
8450          24          28
8460          25          27
8470          25          29
8480          24          34
8490          23          29
8500          26          30
8510          26          30
8520          27          27
8530          25          27
8540          26          32
8550          26          34
8560          25          35
8570          25          33
8580          21          31
8590          27          29
8600          22          30
8610          28          34
8620          23          33
8630          27          37
8640          27          31
8650          29          31
8660          28          30
8670          27          37
8680          25          39
8690          31          37
8700          26          34
8710          27          35
8720          27          29
8730          25          33
8740          26          38
8750          23          27
8760          24          28
8770          23          41
8780          26          36
8790          25          37
8800          24          38
8810          27          31
8820          24          30
8830          26          34
8840          26          34
8850          31          31
8860          21          31
8870          24          24
8880          21          31
8890          23          25
8900          27          29
8910          29          31
8920          31          33
8930          28          36
8940          30          38
8950          31          39
8960          28          36
8970          32          38
8980          33          39
8990          32          34
9000          28          42
9010          31          35
9020          30          38
9030          28          34
9040          29          35
9050          31          43
9060          27          37
9070          28          32
9080          27          31
9090          26          32
9100          28          32
9110          26          34
9120          28          34
9130          27          31
9140          24          32
9150          23          33
9160          21          33
9170          23          33
9180          23          33
9190          31          31
9200          25          31
9210          28          34
9220          30          34
9230          27          33
9240          27          31
9250          24          32
9260          28          32
9270          27          31
9280          25          31
9290          30          32
9300          26          34
9310          26          36
9320          25          31
9330          27          31
9340          29          33
9350          25          35
9360          25          29
9370          28          28
9380          28          34
9390          24          32
9400          24          26
9410          28          34
9420          26          32
9430          29          37
9440          23          29
9450          24          38
9460          28          36
9470          29          35
9480          29          37
9490          26          34
9500          30          36
9510          24          36
9520          28          36
9530          27          33
9540          30          38
9550          29          37
9560          33          39
9570          33          37
9580          32          40
9590          29          39
9600          33          43
9610          31          33
9620          29          37
9630          24          40
9640          23          35
9650          24          34
9660          29          29
9670          27          31
9680          29          35
9690          26          32
9700          27          31
9710          23          29
9720          25          29
9730          22          30
9740          23          27
9750          27          27
9760          25          27
9770          24          28
9780          28          32
9790          26          32
9800          26          30
9810          23          33
9820          24          30
9830          23          29
9840          23          31
9850          26          32
9860          24          28
9870          24          26
9880          22          26
9890          26          34
9900          22          32
9910          24          28
9920          26          26
9930          24          30
9940          23          31
9950          22          26
9960          25          29
9970          27          35
9980          26          30
9990          22          40
10000          23          37
