Time   C(t)   
ps   
0           1           1  3.00546e-10   0.0219615
10    0.783966    0.808137    0.744589   0.0124499
20    0.751003    0.778862   -0.194472  0.00293821
30    0.725202    0.755947   -0.143996  0.00230592
40    0.704884    0.737903     0.17896  0.00193571
50    0.686488    0.721565    0.655859  0.00175191
60    0.669846    0.706785   -0.846765  0.00160524
70    0.654383    0.693052   -0.557582  0.00140807
80    0.641685    0.681774   -0.968419  0.00114136
90    0.631556    0.672779    -1.36224  0.00106702
100    0.620344    0.662822   -0.902456  0.00115363
110    0.608483    0.652287   -0.373748  0.00116536
120    0.597037    0.642122    -1.53398  0.000972834
130    0.589026    0.635008   -0.376031  0.000974089
140    0.577555     0.62482    -1.31329  0.00102356
150    0.568555    0.616827   -0.683267  0.000862715
160    0.560301    0.609496    -1.17932  0.000829178
170    0.551972    0.602099   -0.224104  0.000848079
180    0.543339    0.594432   -0.600302  0.000821134
190    0.535549    0.587513   -0.583698  0.000769201
200    0.527955     0.58077    0.132325  0.000762105
210    0.520307    0.573977   -0.311618  0.000736928
220    0.513217     0.56768    0.318607  0.000716361
230     0.50598    0.561252  -0.00606478  0.000705278
240    0.499111    0.555153    0.146462  0.000679813
250    0.492383    0.549177   -0.178027  0.00069374
260    0.485236     0.54283       1.067  0.000663351
270    0.479116    0.537395   -0.145071  0.000604935
280    0.473138    0.532085   -0.520951  0.000519226
290    0.468732    0.528172    0.860802  0.000456506
300    0.464008    0.523977    0.330612  0.000506879
310    0.458594    0.519169    -0.28371  0.000559278
320    0.452822    0.514042    -1.46115  0.000556482
330    0.447464    0.509284   -0.506281  0.000503305
340    0.442756    0.505103   -0.813867  0.000503381
350    0.437397    0.500343    -1.13821  0.00055595
360    0.431637    0.495228    -1.46234  0.000491856
370     0.42756    0.491607     -2.2822  0.00044903
380    0.422656    0.487252    -2.28237  0.000498737
390    0.417585    0.482748    -1.58372  0.000466634
400    0.413324    0.478963    -1.41402  0.000494023
410    0.407705    0.473973   -0.901747  0.000507686
420     0.40317    0.469946    -1.65284  0.000431381
430    0.399077     0.46631    -1.29576  0.000411691
440    0.394936    0.462633    -1.29541  0.000459673
450    0.389883    0.458146    -1.27846  0.000435056
460    0.386235    0.454905    -2.09805  0.000355354
470    0.382776    0.451834    -1.94523   0.0003758
480    0.378719     0.44823    -2.11614  0.000419953
490    0.374377    0.444374    -2.09953  0.000459313
500    0.369533    0.440072    -2.15121  0.000479072
510    0.364796    0.435865       -3.26  0.000447437
520    0.360584    0.432124    -2.22002  0.000446382
530    0.355868    0.427936    -2.86815  0.000416586
540    0.352252    0.424725    -1.86221  0.000373851
550    0.348391    0.421296    -2.23787  0.000409397
560    0.344064    0.417453     -2.1864  0.000368465
570    0.341022    0.414751    -1.64102  0.000312549
580    0.337813    0.411901    -2.61357  0.000362077
590     0.33378     0.40832    -2.44338  0.000353791
600    0.330738    0.405617     -1.7954  0.000368619
610    0.326408    0.401772    -1.98326  0.000333334
620    0.324071    0.399696    -2.80254  0.000273046
630    0.320947    0.396922    -2.54713  0.000324753
640    0.317576    0.393928    -2.90544  0.000322403
650    0.314499    0.391195    -2.41097  0.000275888
660    0.312058    0.389028    -2.49665  0.000268447
670     0.30913    0.386427    -2.73568  0.000275044
680    0.306557    0.384142    -2.05367  0.000266641
690    0.303797    0.381691    -2.37815  0.000304456
700    0.300468    0.378734    -2.66801  0.000331359
710     0.29717    0.375805    -2.77065  0.000337175
720    0.293725    0.372745    -2.80515  0.000313583
730    0.290898    0.370235    -3.11197  0.000252506
740    0.288675     0.36826    -2.53251  0.000208437
750     0.28673    0.366533    -2.43089  0.000209932
760    0.284476    0.364531    -1.86806  0.00025612
770    0.281607    0.361984    -1.11818  0.000284088
780    0.278794    0.359485    -2.65331  0.000207283
790    0.277462    0.358302    -1.59613  0.000176221
800     0.27527    0.356355   -0.351364  0.000256215
810    0.272337    0.353751    -1.16995  0.000235274
820    0.270564    0.352176    0.245972  0.000192845
830     0.26848    0.350326   0.0406873  0.000189166
840    0.266781    0.348816     0.05739  0.000255181
850    0.263377    0.345793   -0.471701  0.000327505
860    0.260231    0.342999   -0.829945  0.000194731
870    0.259482    0.342334  -0.0459102  0.000178769
880    0.256655    0.339824   -0.387285  0.000255229
890    0.254378    0.337801   -0.660632  0.000264114
900    0.251373    0.335132   -0.507139  0.000232645
910    0.249725    0.333668    0.533423  0.000222899
920    0.246915    0.331173   -0.183517  0.000216119
930    0.245402     0.32983    0.652177  0.000186633
940    0.243182    0.327858   -0.217822  0.000225327
950    0.240896    0.325827   -0.116071  0.000215431
960    0.238874    0.324032     1.09505  0.000179596
970    0.237304    0.322637    0.463945   0.0001956
980    0.234962    0.320557    0.514871  0.000214729
990    0.233009    0.318823    0.873049  0.000199638
1000    0.230969    0.317011     1.14596  0.000227194
1010    0.228465    0.314788     0.95823  0.000174385
1020    0.227481    0.313914     1.69084  0.00012885
1030    0.225888    0.312499     1.50296  0.000191926
1040    0.223643    0.310505      2.4584  0.000220598
1050    0.221476    0.308581     1.17864  0.000220043
1060    0.219242    0.306596     2.76491  0.000267829
1070     0.21612    0.303823     2.33882  0.000232607
1080     0.21459    0.302464     2.45812  0.000216366
1090    0.211793     0.29998     2.74827  0.000235775
1100    0.209874    0.298277     1.46819  0.000205711
1110    0.207678    0.296326     2.37229  0.000175548
1120    0.206363    0.295158     1.79204  0.000180276
1130    0.204073    0.293124     1.70623  0.000229301
1140    0.201777    0.291086     1.38172  0.000207531
1150    0.199922    0.289438     1.19406  0.00014012
1160    0.198975    0.288597     1.63718  0.000127741
1170    0.197367    0.287169      0.8688  0.000220522
1180    0.194565     0.28468     1.99474  0.000217783
1190    0.193012    0.283301     1.60226  0.000209797
1200    0.190369    0.280953     1.51753  0.000216609
1210    0.188679    0.279453     1.48292  0.000148807
1220    0.187392     0.27831     1.77281  0.000148085
1230    0.185718    0.276823    0.970534  0.000169821
1240    0.183996    0.275294     1.75484  0.000230255
1250    0.181113    0.272733     1.68682  0.000223193
1260    0.179532    0.271329     1.78906  0.000142115
1270     0.17827    0.270209     1.82313  0.000143543
1280    0.176661     0.26878     1.63532  0.000171822
1290    0.174834    0.267157     1.84002  0.000140938
1300    0.173843    0.266276     2.19771  0.000147808
1310    0.171878    0.264531     2.36831  0.000170802
1320    0.170427    0.263242     2.06076  0.000202596
1330    0.167826    0.260933     2.26616  0.000150977
1340    0.167407    0.260561     1.92447  8.9667e-05
1350    0.166033     0.25934     1.60008  0.000152772
1360    0.164352    0.257847     2.06049  0.000153115
1370     0.16297     0.25662     2.35009  0.000173088
1380     0.16089    0.254773     3.33964  0.000181054
1390    0.159349    0.253404     2.84454  0.000159699
1400    0.157696    0.251936     2.48636  0.000182997
1410    0.155689    0.250154      2.2134  0.000157167
1420    0.154552    0.249144     2.63962  0.000129119
1430    0.153107     0.24786     1.58162  0.000148027
1440    0.151592    0.246515     2.14442  0.000129738
1450    0.150512    0.245556     2.10983  0.000120175
1460    0.149188     0.24438     2.19498  0.000150127
1470     0.14751    0.242889     2.40033  8.00014e-05
1480    0.147588    0.242959     1.66599  0.000128792
1490    0.144934    0.240602     1.70039  0.000176396
1500     0.14406    0.239826     2.04124  0.000140455
1510    0.142125    0.238107     1.20553   0.0001396
1520    0.141268    0.237347     1.23953  8.68313e-05
1530    0.140388    0.236565     1.20533  7.70785e-05
1540    0.139727    0.235977      1.3585  0.000111674
1550    0.138154    0.234581     1.98944  0.000147454
1560    0.136778    0.233358     1.54609  0.000132248
1570     0.13551    0.232232     1.75077  0.000140352
1580    0.133971    0.230865     1.44367  9.15967e-05
1590    0.133678    0.230605    0.743598  5.05678e-05
1600    0.132959    0.229967    0.777604  0.000104329
1610    0.131591    0.228752     1.30629  0.000147088
1620    0.130018    0.227355     1.15273  0.000167592
1630    0.128239    0.225775    0.845599  7.14742e-05
1640    0.128588    0.226085     2.39808  2.12274e-05
1650    0.127815    0.225398     1.88606  0.00011007
1660    0.126387     0.22413     1.05012  0.000137317
1670    0.125068    0.222959     1.34035  0.00011286
1680     0.12413    0.222125     1.25442  7.58898e-05
1690     0.12355    0.221611    0.896075  8.17411e-05
1700    0.122495    0.220673    0.998575  9.21119e-05
1710    0.121708    0.219975    0.981539  6.62837e-05
1720    0.121169    0.219496     1.40758  7.8937e-05
1730     0.12013    0.218573     1.04913  0.000194937
1740     0.11727    0.216033     1.90243  0.000144137
1750    0.117247    0.216013     1.74812  8.88623e-05
1760    0.115493    0.214455     1.16824  0.000141406
1770    0.114419    0.213501     2.41349  0.000108701
1780    0.113319    0.212524     2.15742  0.000131817
1790    0.111782    0.211159     1.95309  9.66445e-05
1800    0.111386    0.210808     1.61096  8.66387e-05
1810     0.11005    0.209621     1.26994  0.000113175
1820    0.109123    0.208797       1.509  5.0341e-05
1830    0.109043    0.208726    0.826147  8.84566e-05
1840    0.107354    0.207226    0.843349  0.000103511
1850    0.106972    0.206888    0.536214  6.35222e-05
1860    0.106083    0.206098     1.06472  0.000117872
1870    0.104615    0.204794    0.638314  0.000107737
1880    0.103928    0.204184    0.621095  0.000125402
1890    0.102107    0.202567    0.945267  0.00010594
1900     0.10181    0.202303    0.518594  -1.07944e-05
1910    0.102323    0.202758    0.159949  2.75392e-05
1920    0.101259    0.201813    0.160283  7.28343e-05
1930    0.100866    0.201465    0.484138  7.88726e-05
1940   0.0996813    0.200412     1.03058  8.01831e-05
1950   0.0992626     0.20004    0.569436  5.01059e-05
1960   0.0986792    0.199522    0.791408  7.24103e-05
1970   0.0978143    0.198754    0.944667  4.56702e-05
1980   0.0977658    0.198711    0.620345  7.19875e-06
1990   0.0976704    0.198626    0.807761  6.11402e-05
2000    0.096543    0.197625    0.876039  0.000103498
2010   0.0956004    0.196788    0.961454  3.32501e-05
2020    0.095878    0.197035     1.23402  5.92843e-05
2030   0.0944147    0.195735     1.06359  9.2316e-05
2040   0.0940317    0.195395    0.654168  6.78442e-05
2050   0.0930578     0.19453     1.45596  9.75236e-05
2060   0.0920812    0.193663    0.483155  8.47593e-05
2070   0.0913626    0.193024     1.09739  9.91862e-05
2080   0.0900975    0.191901     1.60927  8.04324e-05
2090    0.089754    0.191596     1.19938  8.54608e-05
2100   0.0883883    0.190383    0.602576  0.000105809
2110   0.0876378    0.189716    0.909445  2.39775e-05
2120   0.0879087    0.189957    0.858303  3.12731e-05
2130   0.0870124    0.189161     1.01166  9.09377e-05
2140     0.08609    0.188342    0.824031  8.27879e-05
2150   0.0853566     0.18769    0.636298  9.02016e-05
2160   0.0842859    0.186739     0.44825  3.89099e-05
2170   0.0845784    0.186999    0.772339  4.86691e-05
2180   0.0833126    0.185875    0.857753  7.87284e-05
2190   0.0830038    0.185601    0.738582  0.00010426
2200   0.0812274    0.184023    0.499992  0.000116466
2210   0.0806745    0.183532     1.23328  1.67649e-05
2220   0.0808921    0.183725    0.413794  2.65151e-05
2230   0.0801442    0.183061    0.993927  0.00014862
2240   0.0779197    0.181085    0.465519  8.47641e-05
2250   0.0784489    0.181556    0.396958  8.81031e-06
2260   0.0777434    0.180929    0.481989  8.03292e-05
2270   0.0768423    0.180129    0.482222  6.35155e-05
2280   0.0764731    0.179801    0.771905  8.56344e-05
2290   0.0751297    0.178608    0.482189  0.000130856
2300    0.073856    0.177476     0.87449  0.00010314
2310   0.0730669    0.176776    0.669488  7.90238e-05
2320   0.0722755    0.176073     1.11323  0.000102465
2330   0.0710176    0.174956     1.16439  0.000106364
2340   0.0701483    0.174184     0.87409  9.93155e-05
2350   0.0690312    0.173192     1.31788  5.04594e-05
2360   0.0691391    0.173287     1.50513  4.69726e-05
2370   0.0680918    0.172357     1.45399  7.04128e-05
2380   0.0677308    0.172037     1.06152  7.18728e-05
2390   0.0666543    0.171081     1.48805  0.000122614
2400   0.0652785    0.169859     1.88056  0.00010563
2410   0.0645417    0.169204     1.57309  6.38757e-05
2420    0.064001    0.168724     2.34074  5.78474e-05
2430   0.0633848    0.168177     1.76068  3.69098e-05
2440   0.0632628    0.168068     2.47677  4.69839e-05
2450   0.0624451    0.167342     1.57271  8.43717e-05
2460   0.0615754     0.16657     2.03327  8.33534e-05
2470    0.060778    0.165862     1.87986  6.4867e-05
2480    0.060278    0.165418     1.28246  4.88283e-05
2490   0.0598015    0.164994     1.33342  0.000100238
2500   0.0582733    0.163637      1.3165  0.000105431
2510   0.0576928    0.163122     1.23098  6.81605e-05
2520   0.0569101    0.162427     1.31652  6.95959e-05
2530   0.0563009    0.161886     1.26517  5.09309e-05
2540   0.0558915    0.161522     0.75322  9.13618e-05
2550   0.0544737    0.160263    0.497559  0.000138191
2560   0.0531277    0.159067    0.668088  5.52503e-05
2570   0.0533687    0.159281    0.633666  7.19499e-05
2580   0.0516887    0.157789     0.15605  9.48012e-05
2590   0.0514727    0.157597    0.463203  3.55551e-05
2600   0.0509776    0.157158    0.275587  7.62545e-05
2610   0.0499476    0.156243    -0.37304  5.86489e-05
2620   0.0498046    0.156116  -0.0149785  4.12241e-06
2630   0.0498651     0.15617   -0.782877  4.36632e-05
2640   0.0489313     0.15534   -0.424416  4.37254e-05
2650   0.0489906    0.155393   -0.595478  4.90174e-05
2660    0.047951     0.15447    0.411261  4.01197e-05
2670   0.0481882    0.154681    0.530582  2.87732e-05
2680   0.0473755    0.153959   -0.151752  6.21395e-05
2690   0.0469454    0.153577    -0.35647  3.27908e-05
2700   0.0467197    0.153376   0.0527831  4.31884e-05
2710   0.0460817     0.15281    0.172087  2.78162e-05
2720   0.0461634    0.152882   -0.561539  5.63318e-05
2730    0.044955    0.151809    0.104176  5.51026e-05
2740   0.0450613    0.151903   0.0697029  1.00676e-06
2750   0.0449349    0.151791    0.154851  3.72708e-05
2760   0.0443159    0.151241   0.0863391  3.08461e-05
2770    0.044318    0.151243    0.154584  1.40887e-05
2780   0.0440341    0.150991   -0.101576  1.67163e-05
2790   0.0439836    0.150946   -0.153035  8.19147e-05
2800   0.0423958    0.149536   0.0690195  9.24699e-05
2810   0.0421342    0.149304   0.0176609  8.8907e-05
2820   0.0406177    0.147957    0.137231  0.000102149
2830   0.0400913    0.147489   -0.169771  6.85994e-06
2840   0.0404805    0.147835    0.375506  3.58127e-05
2850    0.039375    0.146853    0.102976  4.10626e-05
2860   0.0396592    0.147106   -0.102326  1.62724e-05
2870   0.0390496    0.146564   -0.153501  4.26104e-05
2880    0.038807    0.146349   -0.187607  3.61566e-05
2890   0.0383264    0.145922   -0.272988  5.47377e-05
2900   0.0377123    0.145377     0.18759  8.53123e-05
2910   0.0366202    0.144407    0.051117  6.82989e-05
2920   0.0363463    0.144163    0.409296  2.87507e-05
2930   0.0360452    0.143896    0.920834  3.94553e-05
2940   0.0355572    0.143463    0.647703  5.55154e-05
2950   0.0349349     0.14291   -0.120129  5.56564e-05
2960   0.0344441    0.142474    0.323564  9.45294e-05
2970   0.0330443    0.141231  -0.000324692  0.000109444
2980   0.0322552     0.14053    0.494194  5.75976e-05
2990   0.0318923    0.140208     0.64777  8.20551e-06
3000   0.0320911    0.140384    0.340451  -4.40475e-05
3010   0.0327733     0.14099    0.561839  3.5139e-05
3020   0.0313883     0.13976    0.220713  0.000110452
3030   0.0305642    0.139028    0.101276  6.2304e-05
3040   0.0301422    0.138654  -0.00130765  7.46563e-05
3050   0.0290711    0.137702    0.186574  6.13049e-05
3060   0.0289161    0.137565    0.289009  2.49981e-05
3070   0.0285711    0.137258    0.817849  6.16513e-05
3080   0.0276831     0.13647    0.186508  7.26546e-05
3090   0.0271181    0.135968    0.544469  4.97891e-05
3100   0.0266873    0.135585    0.288792  4.31255e-05
3110   0.0262555    0.135202    0.629667  5.41632e-05
3120    0.025604    0.134623    0.373806  8.16101e-05
3130   0.0246233    0.133752     1.34647  5.17394e-05
3140   0.0245693    0.133704    0.953623  4.92237e-05
3150   0.0236389    0.132878    0.697812  6.57596e-05
3160   0.0232541    0.132536    0.800163  6.93779e-06
3170   0.0235001    0.132755     1.51624  5.92646e-05
3180   0.0220688    0.131483     1.00448  8.41059e-05
3190    0.021818    0.131261    0.782727  4.99594e-05
3200   0.0210696    0.130596    0.902097  5.4216e-05
3210   0.0207337    0.130298    0.662874  2.53504e-05
3220   0.0205626    0.130146     1.10647  4.06826e-05
3230     0.01992    0.129575    0.748371  5.46397e-05
3240   0.0194698    0.129175     1.10642  5.75935e-05
3250   0.0187682    0.128552     0.25337  6.33082e-05
3260   0.0182036    0.128051     0.52645  9.41805e-05
3270   0.0168845    0.126879    0.697279  8.04423e-05
3280   0.0165948    0.126622    0.304712  1.36592e-05
3290   0.0166114    0.126637    0.202161  -2.82733e-05
3300   0.0171602    0.127124    0.184942  5.31962e-06
3310    0.016505    0.126542    0.508931  6.56338e-05
3320   0.0158476    0.125958    0.816133  6.30221e-05
3330   0.0152445    0.125423    0.628201  8.57401e-05
3340   0.0141328    0.124435    0.508814  7.32649e-05
3350   0.0137792    0.124121    0.884212  1.42201e-05
3360   0.0138484    0.124183    0.918067  2.84461e-05
3370   0.0132103    0.123616    0.730586  7.38123e-05
3380   0.0123721    0.122872    0.901198  3.56998e-05
3390   0.0124963    0.122982    0.729886  5.86228e-05
3400   0.0111997     0.12183    0.986129  7.29335e-05
3410   0.0110376    0.121686    0.781444  1.19479e-05
3420   0.0109607    0.121618    0.439919  -2.22784e-05
3430   0.0114832    0.122082     1.08791  -2.51668e-05
3440    0.011464    0.122065     1.19023  2.62658e-05
3450   0.0109579    0.121616     1.13911  4.35265e-05
3460   0.0105935    0.121292     1.27553  9.19579e-06
3470    0.010774    0.121452     1.03649  9.27299e-06
3480    0.010408    0.121127     1.05369  3.2311e-05
3490   0.0101278    0.120878     1.25818  4.3951e-05
3500  0.00952902    0.120347     1.24096  5.12949e-05
3510  0.00910186    0.119967     1.15571  -1.07768e-05
3520  0.00974455    0.120538    0.763042  1.82679e-05
3530   0.0087365    0.119643    0.780511  6.32092e-05
3540  0.00848037    0.119415    0.609632  4.74652e-05
3550   0.0077872      0.1188     1.03644  2.57317e-05
3560  0.00796573    0.118958    0.933804  -1.93505e-05
3570  0.00817421    0.119143    0.780161  2.58849e-05
3580  0.00744804    0.118498      1.0191  7.85837e-05
3590  0.00660253    0.117748     0.30233  5.24358e-05
3600  0.00639932    0.117567    0.438986  3.35635e-05
3610  0.00593126    0.117151    0.319516  6.15876e-05
3620  0.00516757    0.116473    0.950957  7.5017e-05
3630  0.00443092    0.115819     1.13827  5.4599e-05
3640  0.00407559    0.115503    0.421833  4.29753e-05
3650  0.00357141    0.115056    0.882579  7.26924e-05
3660  0.00262174    0.114212    0.916568  7.58601e-05
3670  0.00205421    0.113708     0.69473  8.80001e-05
3680  0.000861738    0.112649    0.609282  0.000106063
3690  -6.70465e-05    0.111824    0.933488  3.49582e-05
3700  0.000162574    0.112028     1.32581  4.11259e-05
3710  -0.000889565    0.111094     1.20668  3.36889e-05
