Time   C(t)   
ps   
0           1           1  4.35553e-10   0.0612226
10    0.397536    0.860271    0.656349   0.0313194
20    0.373612    0.854723   -0.142442   0.0014162
30    0.369212    0.853702    0.614277  0.00121735
40    0.349265    0.849076   -0.182836  0.00186986
50    0.331815    0.845029    -1.18141  0.00145913
60    0.320083    0.842308    -1.30135  0.000657818
70    0.318658    0.841977    0.495397  0.000795349
80    0.304176    0.838618    0.176107  0.000957489
90    0.299509    0.837536   -0.383129  0.000212446
100    0.299927    0.837633   -0.144041  0.000867848
110    0.282152     0.83351     1.13569  0.000783476
120    0.284257    0.833999     1.21387  0.000198258
130    0.278186    0.832591    -0.42399  0.000471188
140    0.274834    0.831813    0.174312  0.000344194
150    0.271302    0.830994    0.574195  0.000498675
160     0.26486      0.8295   -0.344763  0.00101285
170    0.251046    0.826296    0.615292  0.000577855
180    0.253303     0.82682    0.534347  0.000236924
190    0.246307    0.825197    0.214277  0.000580141
200      0.2417    0.824129    0.175015  0.000289403
210    0.240519    0.823855   0.0138679  0.000651394
220    0.228672    0.821107     1.17363  0.000600483
230    0.228509    0.821069     2.17205  0.000249016
240    0.223692    0.819952    0.415155  0.00018036
250    0.224902    0.820233   -0.066257  0.000284585
260       0.218    0.818632    0.493291  0.000639032
270    0.212122    0.817268   0.0145312  0.00036361
280    0.210728    0.816945    0.973142  0.000520571
290     0.20171    0.814854   -0.224751  0.000521199
300    0.200304    0.814528      1.8921  -1.5381e-05
310    0.202018    0.814925    0.733197  2.0951e-06
320    0.200262    0.814518    0.892783  0.000210569
330    0.197806    0.813948    0.693154  0.000176183
340    0.196739    0.813701    0.493369  0.000525235
350    0.187302    0.811512     1.61188  0.000866126
360    0.179416    0.809683     1.05334  0.00046628
370    0.177976    0.809349     1.77201  -0.000275473
380    0.184926    0.810961     0.53267  -0.000398163
390    0.185939    0.811196     2.13076  0.000205198
400    0.180822    0.810009      1.2511  0.000424505
410    0.177449    0.809227    0.812073  0.000232375
420    0.176174    0.808931     1.69138  0.000224203
430    0.172965    0.808187     1.73127  0.000215748
440    0.171859     0.80793     1.29169  0.000163487
450    0.169695    0.807429    0.851531  0.000498725
460    0.161885    0.805617     2.05052  0.00031419
470    0.163412    0.805971     2.45083  -0.000241216
480    0.166709    0.806736     1.29079  -0.000197411
490     0.16736    0.806887     1.53101  -0.000233378
500    0.171376    0.807818     1.69056   0.0001474
510    0.164412    0.806203     1.89093  0.000218125
520    0.167014    0.806807    0.851687  0.000281192
530    0.158788    0.804899     1.49175  0.000370112
540    0.159612     0.80509  -0.0267212  2.43247e-05
550    0.158302    0.804786     2.13002  0.000460793
560    0.150396    0.802952    0.811722  0.000238466
570    0.153532     0.80368     2.80923  -0.000153298
580    0.153462    0.803663    0.851844  0.00010542
590    0.151424    0.803191     1.49038  -0.000171814
600    0.156898     0.80446     1.36971  -2.84754e-05
610    0.151993    0.803323     2.68812  0.000302651
620    0.150845    0.803057     1.81006  0.000123962
630    0.149514    0.802748      1.0503  9.73113e-05
640    0.148899    0.802605     1.45034  0.000295378
650    0.143607    0.801378      1.1716  3.4669e-05
660    0.148205    0.802444    0.650927  3.52986e-05
670    0.142901    0.801214     1.37041  0.000531094
680    0.137584    0.799981     1.53066  0.00013482
690    0.140204    0.800589     1.92957  -0.000361875
700    0.144821    0.801659     2.04892  -0.000181451
710    0.143833     0.80143     2.48853  0.000252832
720    0.139764    0.800487     2.44732  0.000307572
730    0.137682    0.800004     1.36909  -3.66345e-05
740    0.140497    0.800657     1.16887  1.80282e-05
750    0.137321     0.79992    0.889858  0.000199737
760    0.136502     0.79973     1.84929  -0.00028249
770    0.142971     0.80123      1.2495  0.00038309
780    0.128841    0.797953      1.7694  0.000254902
790    0.137873    0.800048    0.609791  -0.000172906
800    0.132299    0.798755     2.24855  0.000137107
810    0.135131    0.799412     2.44743  -0.000136966
820    0.135038     0.79939    0.809382  -3.65578e-05
830    0.135862    0.799582     1.56903  0.000422487
840    0.126588    0.797431     1.28951  0.000330894
850    0.129244    0.798047    0.451024  -0.000284224
860    0.132273    0.798749     2.40724  0.000138996
870    0.126464    0.797402   -0.228652  -3.64423e-05
880    0.133002    0.798918     1.04847  -4.50641e-05
890    0.127365    0.797611     2.16725  0.000647282
900    0.120056    0.795916    0.729959  0.00013049
910    0.124756    0.797006     1.48855  2.03796e-05
920    0.119648    0.795821     1.64833  -0.000128562
930    0.127327    0.797602    0.210142  8.53483e-05
940    0.117941    0.795425    0.889663  -0.000194147
950     0.13121    0.798503     1.16712  -0.000472448
960     0.12739    0.797617    0.728282  0.000261313
970    0.125984    0.797291    0.128848  5.69761e-05
980    0.126251    0.797352     1.12813  -7.35268e-05
990    0.127454    0.797632    0.887712  -0.00017644
1000     0.12978    0.798171    0.568968  -0.000167368
1010    0.130801    0.798408   -0.470431    1.01e-05
1020    0.129578    0.798124     1.12711  0.000216236
1030    0.126477    0.797405    0.168929  0.000563938
1040    0.118299    0.795508    -1.50835  8.56567e-05
1050    0.124764    0.797008   -0.629042  -0.000270835
1060    0.123716    0.796764     -1.0292  0.000265001
1070    0.119464    0.795778   -0.429764  0.000142838
1080    0.120859    0.796102   -0.549893  -0.00027185
1090    0.124901    0.797039   -0.350536  3.95644e-05
1100    0.120068    0.795918   -0.350653  0.000322928
1110    0.118442    0.795541    0.527989  0.000522703
1120    0.109613    0.793494     0.20983  0.000163205
1130    0.115178    0.794784    0.128769  3.14947e-05
1140    0.108984    0.793348   -0.110045  -6.40817e-05
1150     0.11646    0.795082   -0.230759  9.82366e-05
1160    0.107019    0.792892    -1.94781  0.000773685
1170    0.100986    0.791493    -1.10921  6.04711e-05
1180    0.105809    0.792612     -1.1496  -0.000215542
1190    0.105297    0.792493   -0.789487  -6.34395e-05
1200    0.107078    0.792906    -1.38974  0.000118308
1210    0.102931    0.791944   -0.870041  0.000367375
1220   0.0997307    0.791202   0.0482546  0.000272274
1230   0.0974851    0.790681    0.807197  0.000205725
1240   0.0956162    0.790247   0.0884535  0.000350465
1250   0.0904758    0.789055   -0.870079  0.000389554
1260   0.0878251     0.78844    -1.22937  0.000274985
1270   0.0849761     0.78778   -0.870119  -0.000283749
1280   0.0935001    0.789757   -0.831207  -4.23528e-05
1290   0.0858231    0.787976    -1.58945  -0.000111099
1300   0.0957221    0.790272    -2.30956  -0.00054582
1310   0.0967395    0.790508    -1.07092  0.00023722
1320   0.0909777    0.789172    -1.51065  8.21613e-05
1330   0.0950963    0.790127   -0.311547  -0.000140397
1340   0.0937856    0.789823    -1.23078  6.30796e-05
1350   0.0938347    0.789834    -2.02992  0.000180103
1360   0.0901836    0.788987    -1.62965  0.000277799
1370   0.0882787    0.788546    -1.98945  6.38891e-05
1380   0.0889058    0.788691    -2.22998  0.000191102
1390   0.0844567    0.787659    -2.10891  7.39504e-05
1400   0.0874268    0.788348    -1.50987  -0.000317017
1410    0.090797     0.78913    -2.34976  -0.000170709
1420    0.090841     0.78914    -1.75024  -0.000171287
1430   0.0942228    0.789924    -2.70921  0.000152668
1440   0.0877876    0.788432    -2.74855  8.36264e-05
1450   0.0925503    0.789536     -1.2323  -0.000102657
1460   0.0898408    0.788908    -1.31141  8.39733e-05
1470   0.0908708    0.789147    -2.86918  0.000252293
1480   0.0847949    0.787738   -0.232943  0.000420432
1490   0.0824622    0.787197    -2.03054  -0.000211662
1500   0.0890281    0.788719    -1.43142  -0.000132379
1510   0.0851097    0.787811    -2.39003  0.000233648
1520   0.0843552    0.787636    -1.31102  -0.000122959
1530   0.0875689    0.788381    -1.07205  -0.000282104
1540   0.0899973    0.788944    -1.31176  -3.41035e-05
1550    0.088251    0.788539     -1.8308  -0.000123988
1560    0.092477    0.789519    -1.39189  0.000105458
1570   0.0861418     0.78805    -2.15059  0.000354718
1580   0.0853827    0.787874    -2.62974  0.000235986
1590   0.0814221    0.786955    -2.66948  0.000196319
1600   0.0814563    0.786963    -1.99054  -0.000574873
1610   0.0929196    0.789622    -1.79173  -0.000194186
1620     0.08534    0.787864    -1.59144  0.000246369
1630   0.0879922    0.788479    -1.87107  -0.000205147
1640   0.0894429    0.788816    -1.95178  0.000579872
1650   0.0763948    0.785789   -0.911761  0.000550151
1660   0.0784399    0.786264    -2.67006  0.000491748
1670   0.0665598    0.783508    -0.87203  -0.000235614
1680   0.0831522    0.787357    -0.79288  -0.000952991
1690   0.0856196    0.787929    -1.87146  0.000168474
1700   0.0797827    0.786575    -2.31104  8.72757e-05
1710   0.0838741    0.787524   -0.673609  -0.000165852
1720   0.0830998    0.787345     -2.1913  0.000250404
1730    0.078866    0.786363    -3.15022  7.77282e-05
1740   0.0815452    0.786984    -1.63265  1.71542e-05
1750   0.0785229    0.786283    -2.35178  0.00014952
1760   0.0785548     0.78629    -2.19161  0.000354461
1770   0.0714337    0.784639    -0.71377  0.000375304
1780   0.0710487     0.78455      -2.311  -0.000166225
1790   0.0747582     0.78541    -1.11342  0.000141309
1800   0.0682226    0.783894   -0.752916  0.000510637
1810   0.0645455    0.783041    -1.71324  -0.000351493
1820   0.0752524    0.785524   -0.913634  -0.000299965
1830   0.0705448    0.784433    -1.51342  0.000326962
1840   0.0687132    0.784008     -1.8324  0.000100871
1850   0.0685273    0.783965   -0.714238  -0.00010533
1860   0.0708198    0.784496   -0.833665  0.000246292
1870   0.0636015    0.782822   -0.753384  0.000577687
1880    0.059266    0.781817    -1.47263  -3.25229e-05
1890    0.064252    0.782973   -0.474293  -0.000104687
1900   0.0613597    0.782302   -0.873668  0.000643016
1910   0.0513917     0.77999   -0.833236  -1.15519e-05
1920   0.0615908    0.782356    -1.75344  -0.000520956
1930   0.0618108    0.782407    -2.43203  -0.000293271
1940   0.0674562    0.783716    -3.35102  0.000322722
1950   0.0553563     0.78091    -2.75089  0.000458339
1960   0.0582894     0.78159    -2.27252  -3.1906e-05
1970   0.0559944    0.781058    -1.95233  4.11449e-05
1980   0.0574665    0.781399    -2.11285  0.000136041
1990   0.0532736    0.780427    -2.27185  -1.11792e-05
2000   0.0576901    0.781451    -2.27248  -0.000147438
2010   0.0562224    0.781111    -2.47211  9.86867e-06
2020   0.0574927    0.781406    -1.87263  -0.000306531
2030    0.062353    0.782533     -2.2726  2.04567e-05
2040   0.0570836    0.781311    -1.95245  0.000210325
2050   0.0581465    0.781557    -2.75128  -0.000381882
2060   0.0647212    0.783082     -1.2746  -8.5618e-05
2070   0.0598589    0.781954    -1.03388  -0.000128961
2080   0.0673005     0.78368    -1.55451  2.02769e-05
2090   0.0594533     0.78186    -2.03281  0.00046646
2100   0.0579713    0.781516    -1.71375  0.000276283
2110   0.0539277    0.780579    -1.11432  -0.000384941
2120   0.0656701    0.783302    -1.07552  -0.000235344
2130   0.0586346     0.78167    -2.15239  0.000329969
2140   0.0590707    0.781771    -2.91157  -0.000193672
2150    0.062508    0.782569    -2.95301  -0.000269049
2160   0.0644517    0.783019    -2.43351  0.000277915
2170   0.0569497     0.78128    -1.79376  0.000288799
2180   0.0586757     0.78168    -2.51379  -7.59166e-05
2190    0.058468    0.781632    -2.11465  -0.000151769
2200   0.0617111    0.782384    -2.27439  -0.000141193
2210   0.0612919    0.782287    -2.71295  -0.000228212
2220   0.0662753    0.783442    -2.71365  -0.000369148
2230   0.0686749    0.783999    -1.99573  0.00035581
2240   0.0591591    0.781792    -2.23431  0.000497042
2250    0.058734    0.781693    -2.51363  -0.000239918
2260   0.0639575    0.782905    -4.19189  -0.00025102
2270   0.0637544    0.782858    -3.23292  8.56051e-05
2280   0.0622454    0.782508    -2.63372  0.000325703
2290   0.0572404    0.781347    -2.63329  -0.000121443
2300   0.0646742    0.783071    -2.35459  -0.000350606
2310   0.0642525    0.782973    -1.87525  0.000162653
2320   0.0614212    0.782317    -3.07338  -8.92799e-05
2330   0.0660381    0.783387    -3.75317  0.00043792
2340   0.0526628    0.780285    -1.83423  0.000251059
2350   0.0610169    0.782223    -1.83493  -0.000462348
2360   0.0619097     0.78243    -2.43542  0.000241306
2370   0.0561908    0.781104    -1.07657  9.80822e-05
2380   0.0599481    0.781975    -1.91607  -0.000232594
2390   0.0608427    0.782182    -2.47488  -1.21173e-05
2400   0.0601904    0.782031    -1.31679  5.42646e-05
2410   0.0597574    0.781931    -1.63636  -4.54368e-05
2420   0.0610991    0.782242    -2.75479  -1.01514e-06
2430   0.0597777    0.781935    -1.31695  -0.000234778
2440   0.0657947    0.783331    -2.35588  -0.000101218
2450    0.061802    0.782405    -1.59686  0.000277015
2460   0.0602544    0.782046    -3.11498  0.000244416
2470   0.0569137    0.781271    -2.71556  0.000244968
2480    0.055355     0.78091    -2.27599  -0.000414984
2490   0.0652134    0.783196    -1.15803  -0.000751673
2500   0.0703885    0.784396    -2.31658  0.000189174
2510   0.0614299    0.782319    -3.27484  0.000368622
2520   0.0630161    0.782687    -1.91654  -1.25933e-06
2530   0.0614551    0.782324    -2.67603  -8.0388e-05
2540   0.0646238    0.783059    -2.99497  0.000156793
2550   0.0583192    0.781597    -2.47523  -0.000205095
2560   0.0687257    0.784011    -2.31599  -0.000306416
2570   0.0644475    0.783019    -3.07544  0.000111099
2580   0.0665038    0.783495     -2.5557  -1.29525e-05
2590   0.0647066    0.783079    -2.83519  -3.6031e-05
2600   0.0672244    0.783663    -2.27661  0.000419301
2610   0.0563206    0.781134    -2.75502  0.000248618
2620    0.062252    0.782509    -2.23563  -4.61692e-05
2630    0.057244    0.781348    -2.79588  -0.000229857
2640   0.0668492    0.783576    -2.51636  -0.000435479
2650   0.0659535    0.783368     -0.9189  -1.34282e-05
2660   0.0671177    0.783638    -2.35701  0.000365293
2670   0.0586477    0.781673    -2.79545  0.000354114
2680   0.0600354    0.781995    -1.75746  -0.00057612
2690   0.0701701    0.784346    -2.27759  -0.00017387
2700   0.0635129    0.782802   -0.959255  0.000228263
2710   0.0656048    0.783287     -1.2789  0.000217907
2720   0.0591547    0.781791    -2.47691  0.000345184
2730   0.0587011    0.781686    -1.95748  -0.000325266
2740   0.0656601      0.7833    -2.59778  4.55268e-05
2750   0.0577906    0.781475    -2.07695  0.000451143
2760   0.0566372    0.781207    -1.95779  -0.00045442
2770    0.066879    0.783582    -1.99815  -0.000291793
2780    0.062473    0.782561    -1.59908  0.00051119
2790   0.0566552    0.781211    -2.35682  0.000676014
2800   0.0489528    0.779425    -1.87716  -0.000187787
2810   0.0604109    0.782082    -2.11886  -3.46687e-05
2820   0.0496461    0.779586    -1.51829  0.000444577
2830   0.0515194     0.78002    -2.03745  -0.000246292
2840    0.054572    0.780728      -3.037  1.18218e-05
2850   0.0512829    0.779965    -2.91675  -0.000165248
2860   0.0578769    0.781495    -2.71744  -9.41761e-05
2870   0.0531665    0.780402    -1.03985  0.000329918
2880   0.0512786    0.779964    -1.67831  -0.000213062
2890   0.0574277     0.78139    -2.15836  -0.000165659
2900   0.0545918    0.780733    -1.23971  0.00011791
2910   0.0550695    0.780843    -2.39737  -5.97645e-05
2920   0.0557871     0.78101    -1.47958  0.000154185
2930   0.0519858    0.780128    -3.11712  -3.62234e-05
2940   0.0565115    0.781178    -1.20041  -0.00045325
2950   0.0610508    0.782231    -1.63959  0.000417451
2960   0.0481625    0.779242   -0.400448  0.000333696
2970   0.0543769    0.780683    -1.20045  0.000276193
2980   0.0426386     0.77796    -1.23928  0.000539549
2990   0.0435859     0.77818   -0.760561  0.000205558
3000   0.0385275    0.777007   -0.639847  0.000193749
3010    0.039711    0.777281     -2.2384  -0.000263073
3020    0.043789    0.778227     -2.5582  -0.000118861
3030   0.0420882    0.777833    -2.67825  1.16937e-06
3040   0.0437656    0.778222    -2.91761  -8.32152e-05
3050   0.0437525    0.778219    -2.31872  0.000110341
3060   0.0415587     0.77771    -2.03991  0.000389541
3070   0.0359616    0.776412    -1.40016  0.000572637
3080    0.030106    0.775054    -3.11701  0.000197051
3090   0.0320206    0.775498    -1.99897  -0.000106422
3100   0.0322344    0.775547    -1.08079  -4.58866e-05
3110   0.0329383    0.775711    -2.03952  -2.1562e-05
3120   0.0326657    0.775647    -1.52075  -2.17032e-05
3130   0.0333724    0.775811    -1.79992  -0.000119696
3140   0.0350596    0.776203    -1.88032  7.64819e-05
3150   0.0318428    0.775457   -0.841661  -0.000440143
3160   0.0438625    0.778244   -0.323054  0.000273842
3170   0.0263659    0.774186    -1.04078  0.000704078
3180   0.0297809    0.774978    -1.08122  -0.000416102
3190    0.034688    0.776116    -0.44291  0.000225938
3200   0.0252621     0.77393   -0.642071  0.000696239
3210   0.0207632    0.772887   -0.921631  -8.44225e-06
3220    0.025431    0.773969   -0.442676  -0.000181747
3230   0.0243981     0.77373    -1.12149  6.61506e-05
3240    0.024108    0.773663    -1.08184  0.000340519
3250   0.0175877     0.77215     -2.3999  0.000266222
3260   0.0187835    0.772428    -1.88106  -0.000157307
3270   0.0207339     0.77288    -1.24174  -0.00017026
3280   0.0221887    0.773217   -0.962687  0.00053112
3290   0.0101115    0.770416    -2.12093  0.000355913
3300   0.0150705    0.771567   -0.682699  4.39977e-05
3310  0.00923154    0.770212    -1.04203  0.000546925
3320  0.00413197     0.76903    -1.52142  0.000460343
3330  2.46716e-05    0.768077    -1.36117  -0.000510483
3340   0.0143416    0.771398    -1.96122  -0.000422115
3350  0.00846698    0.770035    -1.08227  0.000524952
3360   0.0038426    0.768963    -1.44082  -0.000158322
3370   0.0116334    0.770769    -1.52149  0.000147079
3380  0.000901026     0.76828    -1.80125  0.000667713
3390  -0.00172084    0.767672    -1.20177  0.000122433
3400  -0.00154763    0.767712    -1.28241  -0.000566046
3410  0.00960007    0.770298    -2.80111  0.000289338
3420  -0.0073344     0.76637   -0.322664  0.000953646
3430  -0.00947286    0.765874    -3.03957  -0.000516484
3440  0.00299528    0.768766    -2.24188  -0.000388526
3450  -0.00170234    0.767676      -1.482  0.000380456
3460  -0.00461384    0.767001    -1.00203  8.21101e-06
3470  -0.00186656    0.767638    -3.15966  8.67362e-06
3480  -0.00478731    0.766961    -2.92007  -0.000172534
3490  0.00158412    0.768439    -2.95996  -0.00017238
3500  -0.00133972    0.767761    -3.11966  -0.0001736
3510  0.00505613    0.769244    -3.20014  0.000293784
3520  -0.00721541    0.766398     -2.6409  0.000306249
3530  -0.00106884    0.767823    -3.00109  0.000165467
3540  -0.0105247     0.76563    -3.43915  -5.69374e-05
3550  6.99028e-05    0.768088     -2.6009  -0.000120878
3560  -0.00810718    0.766191    -1.72132  0.000766682
3570  -0.0152637    0.764531    -3.47915  -0.000344258
3580  -0.00122201    0.767788    -2.08225  -0.000461744
3590  -0.00602886    0.766673    -3.39953  0.000612754
3600  -0.0134771    0.764946    -2.84072  2.22558e-05
3610  -0.00647397     0.76657    -1.28276  -0.000240111
3620  -0.00867489    0.766059    -2.24125  -0.00020205
3630  -0.00243298    0.767507    -2.32169  0.000260799
3640  -0.0138909     0.76485    -2.36107  -0.000137081
3650  0.000308652    0.768143    -2.28219  -0.000453828
3660  -0.0048143    0.766955   -0.364814  8.79053e-05
3670  -0.00144945    0.767735     -1.1245  3.56324e-05
3680  -0.00552695    0.766789     -1.3639  -0.000271349
3690  0.00397752    0.768994   -0.444704  -0.000297845
3700  0.000429954    0.768171    -1.32428  0.000622675
3710  -0.00847597    0.766105    -3.00105   0.0001823
3720  -0.00321604    0.767325    -2.04287  -8.41789e-05
3730  -0.00679239    0.766496    -2.00244  0.000277517
3740  -0.00876638    0.766038    -2.32223  0.000386162
3750  -0.0145156    0.764705    -1.48297  -0.00016539
3760  -0.00545859    0.766805    -1.60341  -0.000272711
3770  -0.00906141     0.76597    -2.96163  0.000158014
3780  -0.00861886    0.766072    -1.92243  5.04739e-05
3790  -0.0100709    0.765736    -1.84305  -3.77782e-06
3800  -0.0085433     0.76609    -1.44336  0.000118745
3810  -0.0124458    0.765185    -2.00263  -7.18046e-05
3820  -0.00710721    0.766423     -2.1623  0.000610236
3830  -0.0246505    0.762354    -2.08213  2.33223e-05
3840  -0.00757366    0.766315    -1.32381  -0.000794283
3850  -0.00876483    0.766038    -2.48256  -0.000264217
3860  -0.00228932     0.76754     -1.8432  0.000147117
3870  -0.0117072    0.765356    -2.80166  0.000215015
3880  -0.00658962    0.766543    -2.44299  -0.000127149
3890  -0.0091642    0.765946    -2.80181  -0.000390106
3900  0.00121251    0.768353    -1.40433  -4.52184e-05
3910  -0.00825984    0.766156    -1.60423  0.000312609
3920  -0.00503968    0.766902    -1.56438  -0.000100819
3930  -0.00624345    0.766623    -1.92395  -0.000198658
3940  -0.00106653    0.767824    -2.00341  0.000426651
3950  -0.0147765    0.764644    -1.08492  0.000523963
3960  -0.0115458    0.765393    -2.16382  3.90248e-05
3970   -0.015557    0.764463   -0.965574  0.000108349
3980  -0.0137128    0.764891    -1.24552  -0.000436481
3990  -0.00682734    0.766488     -1.5252  -0.000255274
4000  -0.00860729    0.766075   -0.207099  2.39006e-05
4010  -0.00730536    0.766377  -0.0077824  0.000164876
4020  -0.0119048     0.76531    -2.04408  0.00068614
4030  -0.0210281    0.763194    -1.92426  -0.000327926
4040  -0.00534628    0.766831   -0.886152  -0.000567202
4050  -0.00968411    0.765825    -1.08601  0.000887457
4060  -0.0230954    0.762715    -1.60501  0.000676965
4070  -0.0232234    0.762685    -1.60439  -0.00011507
4080   -0.020794    0.763249    -1.44492  -0.000143763
4090  -0.0203481    0.763352    -1.76522  -1.82465e-06
4100  -0.0207575    0.763257   -0.606709  -0.000173344
4110  -0.0168813    0.764156   -0.167485  -0.000230795
4120  -0.0161416    0.764328   -0.886464  0.000713831
4130  -0.0311579    0.760845   -0.846265  8.34465e-05
4140  -0.0178106    0.763941   -0.887205  -0.00041704
4150  -0.0228171    0.762779    0.311351  0.000155945
4160  -0.0209295    0.763217   -0.248039  -0.000463132
4170  -0.0135545    0.764928  -0.0891555  0.000359344
4180  -0.0281163     0.76155   -0.407821  0.000749476
4190   -0.028544    0.761451   -0.886737  -0.000145588
4200  -0.0252046    0.762226    -0.80708  0.000159222
4210  -0.0317284    0.760713   -0.606202   0.0005226
4220  -0.0356566    0.759802    -1.12633  -0.000218626
4230  -0.0273559    0.761727    0.190989  -0.00039355
4240  -0.0277856    0.761627    -1.20657  1.38521e-05
4250  -0.0276329    0.761662    -2.04541  -0.000205802
4260  -0.0236695    0.762582   -0.767973  4.32909e-05
4270  -0.0284988    0.761462    -1.68627  0.000513143
4280  -0.0339324    0.760201   -0.926779  -5.9533e-05
4290  -0.0273081    0.761738  -0.0888821  -0.000235742
4300  -0.0292176    0.761295    -1.36729  0.000235665
4310  -0.0320214    0.760645   -0.208777  -0.000163295
4320  -0.0259517    0.762052    -1.00737  8.90233e-05
4330  -0.0338019    0.760232    0.112191  5.83638e-05
4340  -0.0271189    0.761782    -1.36659  7.47601e-05
4350  -0.0352971    0.759885   -0.527833  0.000118462
4360  -0.0294882    0.761232    -1.32674  -0.000432549
4370  -0.0266461    0.761891     -0.4488  0.000104327
4380  -0.0315747    0.760748  -0.0485272  -0.000405719
4390  -0.0185317    0.763773    -1.12793  -0.000270346
4400  -0.0261678    0.762002    0.270763  0.00035874
4410  -0.0257065    0.762109    0.349678  0.000315436
4420  -0.0324765    0.760539    -1.96669  0.000300826
4430   -0.031723    0.760714   -0.768558  -0.000120865
4440  -0.0300592      0.7611    -1.00823  0.000303062
4450  -0.0377843    0.759308   -0.808016  0.000272929
4460  -0.0355178    0.759834   -0.727891  0.000168332
4470  -0.0411509    0.758527   -0.209596  7.68289e-05
4480  -0.0370544    0.759477   -0.808562  -0.000395156
4490  -0.0332478     0.76036   -0.569787  -0.000121405
4500  -0.0346263     0.76004    -1.52844  -0.000198902
4510  -0.0292697    0.761283   -0.649717  0.000675757
4520  -0.0481414    0.756906    -0.64843  0.000460755
4530  -0.0384848    0.759146   -0.529354  -0.000382114
4540  -0.0404992    0.758678   -0.848761  0.000479579
4550  -0.0480764    0.756921   -0.568851  -0.000137505
4560   -0.037749    0.759316    -0.40981  -0.000415189
4570  -0.0397726    0.758847   -0.609947  0.000699259
4580  -0.0517342    0.756073     -0.3291  -0.000527034
4590   -0.029232    0.761292    -0.53068  -0.000712674
4600  -0.0374807    0.759378   -0.289721  0.000327143
4610  -0.0357748    0.759774    -1.08929  0.000376177
4620  -0.0450043    0.757634    -0.56928  3.20217e-05
4630  -0.0364152    0.759626    -0.72992  -0.00082908
4640  -0.0284227    0.761479     1.02756  0.000378143
4650  -0.0439781    0.757872   -0.250419  0.000534769
4660  -0.0391181    0.758999   -0.250107  -0.000234444
4670  -0.0392892    0.758959   -0.650614  -0.00015669
4680  -0.0359843    0.759726     1.38732  -0.000172752
4690  -0.0358342     0.75976   -0.569904  -9.44586e-05
4700  -0.0340951    0.760164   -0.171036  -4.70174e-05
4710  -0.0348938    0.759978   -0.650068  -7.91674e-05
4720  -0.0325117    0.760531     1.62699  -0.000238749
4730  -0.0301189    0.761086   0.0683254  0.000319844
4740  -0.0389086    0.759047    0.548099  0.000416166
4750  -0.0384422    0.759155     1.06733  -0.000255441
4760  -0.0337998    0.760232    0.387654  0.000178098
4770  -0.0420041    0.758329    0.308817  0.000370922
4780  -0.0412182    0.758512     1.46682  2.00458e-06
4790  -0.0420442     0.75832     1.18683  5.03326e-05
4800  -0.0422249    0.758278    0.307529  0.000731101
4810  -0.0566662    0.754929     1.10741  1.8221e-05
4820  -0.0425893    0.758194     1.30634  -0.00051579
4830  -0.0463504    0.757321    0.147708  0.000344348
4840  -0.0494763    0.756596    0.587868  0.000133471
4850  -0.0490198    0.756702    0.467818  0.000183379
4860  -0.0531439    0.755746  -0.0918077  0.000150895
4870  -0.0520377    0.756002    0.866881  0.000266954
4880  -0.0584829    0.754507    0.786562  0.000415395
4890  -0.0603456    0.754075    0.467154  0.000417451
4900  -0.0668319    0.752571    0.707646  -0.000407492
4910  -0.0521958    0.755966    0.387537  -0.000539421
4920  -0.0560435    0.755073    0.466686  0.00033579
4930  -0.0589116    0.754408   0.0274235  0.000403625
4940   -0.064116    0.753201   -0.411215  0.000421691
4950  -0.0673454    0.752452    0.147592  7.31792e-05
4960  -0.0655796    0.752861     0.70632  0.000124026
4970  -0.0698259    0.751877     0.34687  0.000526006
4980  -0.0760997    0.750422     0.10751  7.65845e-06
4990  -0.0699791    0.751841    0.866648  -0.000510689
