Time   Number   
ps   
0          27          13
10          27          18
20          29          13
30          30          14
40          25          13
50          26          20
60          25          15
70          28          17
80          20          17
90          23          16
100          27          15
110          24          20
120          27          20
130          24          18
140          24          14
150          25          17
160          26          15
170          25          17
180          27          14
190          21          24
200          27          16
210          27          14
220          27          13
230          25          15
240          26          20
250          27          12
260          26          10
270          24          17
280          25          18
290          26          14
300          25          11
310          24          13
320          24          11
330          23           8
340          25          14
350          20          11
360          23          14
370          24          14
380          22          14
390          21          12
400          21          12
410          23          10
420          23           7
430          23           9
440          24          20
450          22          13
460          21          12
470          25          12
480          24          15
490          26          13
500          24          14
510          22          12
520          26          10
530          23           9
540          23          12
550          24          10
560          27          14
570          25          10
580          23          10
590          22          10
600          23          13
610          20          13
620          27           8
630          26          12
640          24           9
650          22          13
660          26          13
670          26          11
680          25           8
690          25           7
700          23           9
710          20          14
720          25           8
730          23          11
740          24           7
750          22          13
760          26          12
770          25          10
780          27           9
790          23          17
800          25          11
810          22          13
820          25          13
830          26           9
840          25          12
850          23          11
860          21          11
870          25          11
880          25          10
890          22           8
900          22          10
910          24           9
920          24          10
930          21          13
940          26          13
950          22           9
960          23          13
970          26          10
980          27          10
990          23          10
1000          27          10
1010          25          12
1020          24          10
1030          25          12
1040          21          12
1050          22           9
1060          25          13
1070          27          10
1080          28           8
1090          28          11
1100          24           8
1110          27           8
1120          25          13
1130          26          14
1140          24           8
1150          28          10
1160          23           9
1170          21          14
1180          26          11
1190          27           8
1200          24          13
1210          26           9
1220          25           9
1230          23           9
1240          24           8
1250          25          11
1260          25          13
1270          23          11
1280          26           8
1290          28           8
1300          25           9
1310          24          10
1320          27          10
1330          25          11
1340          25          10
1350          27          10
1360          25          12
1370          24          11
1380          26           9
1390          28           7
1400          21           6
1410          24           5
1420          24           9
1430          25           8
1440          25          11
1450          24           9
1460          26          11
1470          28          11
1480          25          11
1490          23          14
1500          27          10
1510          27          10
1520          25           7
1530          26           8
1540          24          16
1550          27          11
1560          24           9
1570          28          11
1580          21          12
1590          25          11
1600          22           8
1610          28          10
1620          25          12
1630          24          12
1640          25          12
1650          23          14
1660          27          12
1670          24          16
1680          25          12
1690          24           6
1700          24          13
1710          27          12
1720          29          11
1730          25          11
1740          26          14
1750          23          11
1760          24          13
1770          24          14
1780          27           9
1790          26          14
1800          27          11
1810          24          16
1820          25          15
1830          22          15
1840          26          10
1850          26          10
1860          27          14
1870          28           9
1880          23          11
1890          26           8
1900          24          13
1910          29          14
1920          27          14
1930          28          15
1940          28          14
1950          27          12
1960          24          14
1970          27          12
1980          24          11
1990          26          12
2000          28          19
2010          28          14
2020          24          13
2030          28          10
2040          26          12
2050          26          13
2060          24          15
2070          25          13
2080          23          16
2090          27          11
2100          30          11
2110          26          12
2120          26          12
2130          24          12
2140          28          14
2150          26          16
2160          24          14
2170          28          11
2180          23          16
2190          30          13
2200          30           9
2210          29           9
2220          26          13
2230          26          13
2240          28          16
2250          26           7
2260          24          12
2270          24          16
2280          27          13
2290          27          13
2300          26          11
2310          23          15
2320          25          14
2330          26           9
2340          24          15
2350          26          17
2360          25          13
2370          26          11
2380          27          13
2390          25          12
2400          27          11
2410          26          14
2420          28          13
2430          23           9
2440          26          14
2450          29          11
2460          27          11
2470          25          10
2480          27          11
2490          26          10
2500          25          13
2510          26          11
2520          27          11
2530          24          14
2540          26          14
2550          27           7
2560          28          11
2570          23          13
2580          25          12
2590          27          11
2600          23          14
2610          24          15
2620          26           7
2630          28          14
2640          26          12
2650          23          11
2660          28           9
2670          24          12
2680          26           9
2690          24           8
2700          23          12
2710          29          11
2720          28          10
2730          24          11
2740          27          12
2750          26           9
2760          24          10
2770          27          15
2780          26          14
2790          25          15
2800          24           7
2810          24          17
2820          24          15
2830          26          10
2840          26          14
2850          25          11
2860          27          12
2870          24          13
2880          23          15
2890          23          10
2900          26          14
2910          24          10
2920          28          10
2930          24           9
2940          22           9
2950          21           9
2960          24          11
2970          24          16
2980          26           9
2990          28          13
3000          29          10
3010          27          13
3020          26           8
3030          24          12
3040          27          15
3050          27          13
3060          29          11
3070          26          15
3080          25          10
3090          22          10
3100          25          14
3110          26          11
3120          25          12
3130          26          11
3140          24          12
3150          25          10
3160          24          14
3170          28          12
3180          24          11
3190          26          11
3200          22          16
3210          24          12
3220          25          13
3230          23          14
3240          23          12
3250          23          15
3260          26          12
3270          29          12
3280          26           9
3290          25          13
3300          26          12
3310          25          10
3320          23           9
3330          24          10
3340          25          11
3350          25          15
3360          25          12
3370          25          12
3380          24           8
3390          23          10
3400          27           7
3410          23          14
3420          25           9
3430          26           8
3440          27          12
3450          28          11
3460          28          10
3470          26           8
3480          25          13
3490          22          13
3500          25          13
3510          26          13
3520          23          10
3530          27          11
3540          22          10
3550          27          11
3560          25           8
3570          27          15
3580          26          12
3590          25          17
3600          23          19
3610          25          16
3620          24          16
3630          24          12
3640          23          14
3650          27          14
3660          25          10
3670          25          11
3680          26           9
3690          27          11
3700          25          14
3710          27          13
3720          24          12
3730          26          12
3740          26          15
3750          27          13
3760          25          13
3770          26          13
3780          25          17
3790          26          13
3800          27          10
3810          25          17
3820          25          13
3830          27          10
3840          27          12
3850          28          15
3860          22          17
3870          28          11
3880          25          10
3890          22           7
3900          22          12
3910          24          12
3920          24          12
3930          25          13
3940          26          11
3950          29          11
3960          24          14
3970          24          11
3980          22          13
3990          25           9
4000          27          11
4010          24           9
4020          26          12
4030          26          15
4040          25          11
4050          25          15
4060          24          10
4070          27          11
4080          27          13
4090          22          17
4100          24          11
4110          26          11
4120          26          17
4130          27          11
4140          26          10
4150          25           9
4160          24          10
4170          26          10
4180          28           9
4190          26          11
4200          24          12
4210          26          15
4220          24          11
4230          24          15
4240          23          13
4250          25          11
4260          24          14
4270          20          17
4280          24          16
4290          23          14
4300          25          15
4310          23          13
4320          26          11
4330          25          11
4340          23          14
4350          29          10
4360          26          10
4370          27          13
4380          24          12
4390          24          10
4400          27          16
4410          24          12
4420          27          11
4430          23          12
4440          27           8
4450          24          13
4460          25          17
4470          23          14
4480          21          15
4490          26          11
4500          25          13
4510          26          10
4520          24           7
4530          26          11
4540          25          12
4550          25          11
4560          26          11
4570          26          14
4580          25          17
4590          22          15
4600          25          16
4610          24          12
4620          25          12
4630          25          13
4640          26          13
4650          24          10
4660          27          12
4670          23          10
4680          27          12
4690          26          14
4700          28          13
4710          31          10
4720          23           8
4730          29          12
4740          25          12
4750          28          12
4760          23          13
4770          28          14
4780          28           9
4790          27          11
4800          26          15
4810          27          10
4820          27          16
4830          25          12
4840          28          14
4850          25          12
4860          28          11
4870          25          13
4880          27          14
4890          25          11
4900          25          12
4910          27          13
4920          25          10
4930          24          14
4940          30          14
4950          29          16
4960          25          12
4970          25          15
4980          25          12
4990          28          10
5000          27          13
5010          24          15
5020          28          15
5030          26          15
5040          26          11
5050          26          13
5060          25          12
5070          30          15
5080          27          11
5090          26           9
5100          26           9
5110          26          11
5120          26          11
5130          26           8
5140          26          13
5150          29          19
5160          27          11
5170          28          13
5180          25          14
5190          28          12
5200          26          10
5210          27          10
5220          24          13
5230          24          12
5240          26          14
5250          25          11
5260          27          13
5270          26          15
5280          27          13
5290          27          10
5300          24          12
5310          27          13
5320          23          14
5330          24          16
5340          25          11
5350          30          12
5360          25          15
5370          26          11
5380          26          13
5390          29          13
5400          26          15
5410          26          14
5420          23          16
5430          26          15
5440          24          12
5450          26          15
5460          25          11
5470          25          15
5480          25          12
5490          27          13
5500          23          13
5510          29          13
5520          25          10
5530          25           8
5540          30          13
5550          25          10
5560          27          15
5570          28           9
5580          26          13
5590          23          14
5600          27          13
5610          25          11
5620          26          11
5630          22          11
5640          25          12
5650          26           8
5660          25           9
5670          24          10
5680          26          11
5690          22          17
5700          27          12
5710          26          16
5720          22          12
5730          25          14
5740          27          11
5750          27           9
5760          24          17
5770          24          17
5780          23          16
5790          26          11
5800          25          11
5810          24          12
5820          27          13
5830          26          13
5840          25          14
5850          27          13
5860          28          13
5870          28          11
5880          26          13
5890          29          10
5900          28          11
5910          30          13
5920          25          14
5930          28          10
5940          26          11
5950          29          15
5960          28          14
5970          22          17
5980          25          13
5990          23          13
6000          26          14
6010          26          11
6020          26          11
6030          28          12
6040          27          16
6050          26          14
6060          25          15
6070          28          11
6080          28          11
6090          27          10
6100          25          13
6110          30          13
6120          24          16
6130          28          11
6140          25          14
6150          26          10
6160          25          11
6170          27          12
6180          23          12
6190          25          13
6200          25          11
6210          27          15
6220          26          13
6230          24          14
6240          26          14
6250          22          19
6260          26          17
6270          27          12
6280          23          19
6290          23          16
6300          23          15
6310          24          19
6320          22          17
6330          24          10
6340          23          11
6350          26          12
6360          27          15
6370          25          17
6380          28          15
6390          26          14
6400          25          12
6410          23          12
6420          28          12
6430          23          13
6440          27          13
6450          23          17
6460          29          15
6470          27          16
6480          26          17
6490          25          14
6500          24          16
6510          27          12
6520          24          11
6530          26          14
6540          26          17
6550          27          11
6560          26          17
6570          27          13
6580          25          15
6590          26          12
6600          25          14
6610          26          14
6620          28          10
6630          26          17
6640          27          17
6650          26          14
6660          26          15
6670          28          13
6680          26          18
6690          24          13
6700          25          20
6710          24          13
6720          25          13
6730          30          16
6740          26          16
6750          26          12
6760          24          14
6770          24          15
6780          25          13
6790          24          12
6800          25          10
6810          27          13
6820          24          12
6830          24          17
6840          28          15
6850          28          12
6860          26          10
6870          27          14
6880          26          17
6890          24          11
6900          26          13
6910          27          13
6920          27          17
6930          26          13
6940          29          10
6950          24          12
6960          24          12
6970          26          13
6980          27          12
6990          24          13
7000          26          13
7010          26          14
7020          29          11
7030          25          13
7040          28          13
7050          30          12
7060          26          14
7070          28          13
7080          26          19
7090          26          14
7100          28          15
7110          27          16
7120          26          14
7130          25          16
7140          24          16
7150          27          19
7160          27          11
7170          27          11
7180          27          19
7190          29          16
7200          24          18
7210          29          22
7220          31          18
7230          29          16
7240          31          16
7250          31          14
7260          27          18
7270          27          18
7280          26          15
7290          29          15
7300          28          18
7310          28          16
7320          29          15
7330          26          16
7340          23          18
7350          27          18
7360          28          14
7370          24          16
7380          29          15
7390          29          15
7400          27          17
7410          24          16
7420          27          20
7430          25          18
7440          28          13
7450          28          16
7460          29          15
7470          27          11
7480          25          14
7490          26          14
7500          26          17
7510          25          14
7520          27          16
7530          26          17
7540          26          18
7550          26          17
7560          25          18
7570          26          17
7580          24          16
7590          27          23
7600          26          17
7610          27          25
7620          27          16
7630          30          17
7640          24          18
7650          29          20
7660          29          19
7670          27          20
7680          28          18
7690          26          17
7700          25          20
7710          26          17
7720          27          14
7730          28          17
7740          28          21
7750          25          18
7760          27          15
7770          29          11
7780          29          19
7790          27          15
7800          26          15
7810          29          20
7820          27          19
7830          25          20
7840          27          16
7850          27          13
7860          24          21
7870          27          14
7880          25          14
7890          26          17
7900          26          14
7910          28          15
7920          28          15
7930          27          15
7940          26          14
7950          23          22
7960          25          17
7970          27          13
7980          27          13
7990          28          16
8000          28          16
8010          28          15
8020          24          15
8030          29          15
8040          24          18
8050          25          13
8060          25          15
8070          26          18
8080          24          20
8090          26          17
8100          27          13
8110          23          19
8120          30          18
8130          25          13
8140          26          13
8150          23          16
8160          28          15
8170          24          15
8180          26          15
8190          27          14
8200          24          17
8210          26          16
8220          30          14
8230          30          13
8240          30          18
8250          31          16
8260          27          11
8270          24          19
8280          25          15
8290          24          15
8300          24          14
8310          27          14
8320          26          12
8330          27          11
8340          30          14
8350          27          10
8360          25          12
8370          26          16
8380          29          16
8390          26          16
8400          29          16
8410          28          13
8420          29          16
8430          29          14
8440          31          15
8450          27          16
8460          25          15
8470          25          13
8480          27          13
8490          27          16
8500          26          15
8510          25          16
8520          26          13
8530          29          15
8540          29          17
8550          26          15
8560          23          16
8570          31          15
8580          26          16
8590          27          15
8600          28          15
8610          28          16
8620          24          14
8630          28          14
8640          30          14
8650          27          15
8660          26          17
8670          25          14
8680          25          13
8690          26           9
8700          26          17
8710          24          16
8720          26          12
8730          30          14
8740          29          13
8750          23           9
8760          28          13
8770          25          16
8780          24          14
8790          28          16
8800          30          12
8810          29          12
8820          26           8
8830          28          12
8840          28          11
8850          27          12
8860          31          14
8870          24          10
8880          26          15
8890          23          11
8900          26          10
8910          26          14
8920          28          14
8930          25          15
8940          29          14
8950          29          18
8960          29          17
8970          31          14
8980          25          19
8990          25          17
9000          26          15
9010          25          13
9020          29          13
9030          24          15
9040          25           8
9050          26          10
9060          28          14
9070          25          14
9080          27          14
9090          26          12
9100          25          12
9110          22          12
9120          25          13
9130          28          15
9140          23          13
9150          25           9
9160          23          11
9170          24          10
9180          27          14
9190          27           9
9200          24           9
9210          22          12
9220          26          10
9230          24          14
9240          24          12
9250          24          13
9260          23          14
9270          24          14
9280          25          17
9290          25          13
9300          24           9
9310          22          16
9320          25          13
9330          26          14
9340          25          10
9350          25          11
9360          28          17
9370          27          11
9380          26          17
9390          25           8
9400          23          16
9410          28          15
9420          25          16
9430          28          12
9440          25          22
9450          25          13
9460          19          15
9470          26          14
9480          27          13
9490          24          12
9500          24          13
9510          24          14
9520          25          12
9530          25           9
9540          23          14
9550          28          12
9560          22          10
9570          24           8
9580          27          10
9590          25          15
9600          23          13
9610          27          11
9620          25          12
9630          21          10
9640          26          17
9650          27          10
9660          27          13
9670          27          13
9680          27          10
9690          25          15
9700          26           9
9710          25          14
9720          22          11
9730          24          14
9740          25          17
9750          27           9
9760          24           8
9770          24          11
9780          21          14
9790          29          14
9800          22          13
9810          27          13
9820          26          11
9830          25           8
9840          27          12
9850          22           9
9860          24           9
9870          26          10
9880          27           8
9890          25          11
9900          26          14
9910          25          12
9920          23          11
9930          26          13
9940          27          13
9950          26          11
9960          25          13
9970          26          12
9980          23          12
9990          27           9
10000          26          17
