Time   C(t)   
ps   
0           1           1  2.04823e-09     0.05285
10    0.481823      0.7671   -0.843793   0.0273672
20    0.452655     0.75399    -1.33275  0.00188451
30    0.444133     0.75016    -1.29244  0.00120338
40    0.428588    0.743173     1.38343  0.00106424
50    0.422848    0.740593    -1.11657  0.000623284
60    0.416122     0.73757    -0.62696  0.00120022
70    0.398843    0.729804   -0.625043  0.00139756
80    0.388171    0.725007      0.5348  0.000789589
90    0.383052    0.722706     0.66814  0.000120905
100    0.385752     0.72392      0.7973  0.000410593
110     0.37484    0.719015    0.307643  0.000533345
120    0.375086    0.719126    0.037783  0.00037789
130    0.367282    0.715618   -0.586825  0.000678015
140    0.361525    0.713031    -1.34434  0.000330287
150    0.360676    0.712649    -2.14948  0.000380383
160    0.353918    0.709612    0.660605  -2.33263e-05
170    0.361143    0.712859    0.655509  2.04891e-06
180    0.353877    0.709593    0.344904  0.000673021
190    0.347682    0.706809    0.167335  0.000417341
200     0.34553    0.705842   -0.903224  0.000527285
210    0.337137    0.702069   -0.322713  0.000324944
220    0.339031    0.702921   0.0771336  0.000142619
230    0.334284    0.700787     1.59403  0.000420597
240    0.330619     0.69914    0.211041  0.000342025
250    0.327444    0.697713    -0.18959  0.000268079
260    0.325257     0.69673   -0.324543  0.000139205
270     0.32466    0.696461     1.63635  0.000149596
280    0.322266    0.695385    0.877352  0.000339417
290    0.317871     0.69341    0.567312  0.000639701
300    0.309471    0.689635    0.167073  0.000305808
310    0.311755    0.690661   -0.502679  -0.000383763
320    0.317147    0.693084     1.45629  -9.37715e-05
330    0.313631    0.691504  -0.0158538  0.000261699
340    0.311913    0.690732   -0.997082  0.000151843
350    0.310594    0.690139    -1.84475  0.000177312
360    0.308367    0.689138     -1.1309  -3.4675e-06
370    0.310663     0.69017    0.339504  2.19405e-05
380    0.307928    0.688941    -1.40072  0.000389752
390    0.302868    0.686667   -0.864395  0.000652897
400     0.29487    0.683072     2.43839  0.000128689
410    0.300294     0.68551   -0.552961  -0.000350823
420    0.301886    0.686225    -2.07064  9.88305e-05
430    0.298318    0.684622     -1.3564  0.000392716
440    0.294032    0.682695   -0.508384  0.000256521
450    0.293187    0.682316    -4.03166  -0.000260772
460    0.299247    0.685039      -2.252  0.000338961
470    0.286408    0.679269    -2.24808  0.000323379
480     0.29278    0.682132    -2.92071  -0.00022008
490     0.29081    0.681247    -3.67796  0.000197263
500    0.288835    0.680359    -1.09212  0.000284484
510     0.28512     0.67869   -0.689699  0.000259446
520    0.283646    0.678027    -3.09715  -0.000231074
530    0.289741    0.680767   -0.780945  -0.000164607
540    0.286938    0.679507    -3.32387  0.000193498
550    0.285871    0.679027    -2.78798  0.00017859
560    0.283366    0.677901    -3.05636  0.000322741
570    0.279417    0.676126   -0.424064  -1.61052e-05
580    0.283688    0.678046     -2.7451   0.0002469
590    0.274479    0.673907   -0.914591  0.000282799
600    0.278032    0.675504    -2.56618  -0.000386682
610    0.282212    0.677383    -1.76592  -1.04308e-05
620    0.278241    0.675598    -3.81601  0.000402775
630    0.274157    0.673762    -4.21707  0.000476131
640    0.268718    0.671318     -3.0113  0.000140239
650    0.271352    0.672502    -2.83504  3.71844e-05
660    0.267974    0.670983    -4.75244  -2.53767e-05
670    0.271859     0.67273    -3.19427  -0.000170568
680    0.271386    0.672517    -3.01487  0.000427336
690    0.263313    0.668888    -3.36962  0.000360087
700    0.264184     0.66928    -3.10337  -0.000134125
710    0.265995    0.670094    -2.47964  0.00014758
720    0.261232    0.667953    -2.30194  0.000252092
730    0.260953    0.667828    -3.37311  0.000101137
740     0.25921    0.667044    -5.24558  0.000148375
750    0.257986    0.666494     -5.1122  1.76638e-05
760    0.258856    0.666885    -6.27404  0.000112337
770    0.255739    0.665484    -6.22755  0.000222719
780    0.254402    0.664883    -4.80198  -0.000113446
790    0.258008    0.666504     -3.6882  0.00020256
800    0.250351    0.663062    -5.38079  0.000481866
810    0.248371    0.662172    -4.62315  -1.81675e-05
820    0.250714    0.663226    -3.42043  0.000151073
830    0.245349    0.660814    -2.88301  8.22201e-05
840     0.24907    0.662487    -2.39401  -2.30014e-05
850    0.245809    0.661021    -3.41899  0.00037415
860    0.241587    0.659123    -3.82123  0.000316556
870    0.239478    0.658176     -3.3287  -7.05175e-05
880    0.242997    0.659757    -5.16052  0.000179632
890    0.235886    0.656561    -3.64218  0.000184784
900    0.239301    0.658096    -5.38358  -0.000118066
910    0.238247    0.657622    -4.44667  0.000132222
920    0.236657    0.656907    -5.07123  0.000169872
930    0.234849    0.656095    -4.80251  0.000180972
940    0.233038    0.655281    -3.24181  0.00025629
950    0.229724    0.653791    -4.26805  0.000251402
960    0.228009    0.653021    -3.95679  3.74429e-05
970    0.228975    0.653455     -5.6971  -2.67945e-05
980    0.228545    0.653262    -4.04647  0.000161285
990    0.225749    0.652005    -6.05346  0.000166908
1000    0.225207    0.651761     -6.0101  0.000215916
1010    0.221431    0.650064    -6.54438  0.000119074
1020    0.222826    0.650691    -5.38532  2.77959e-05
1030    0.220875    0.649814    -3.69077  0.000433262
1040    0.214161    0.646796    -4.44784  0.000298626
1050    0.214902     0.64713    -4.93994  -9.5959e-05
1060     0.21608    0.647659    -6.45627  0.00014262
1070     0.21205    0.645848     -4.7615  4.48897e-05
1080    0.215182    0.647255    -5.34344  -9.03085e-06
1090    0.212231    0.645929    -6.50246  0.000262814
1100    0.209926    0.644893    -6.54739  0.000148985
1110    0.209251     0.64459     -6.2346  0.000285842
1120    0.204209    0.642323    -7.16973  2.4043e-05
1130     0.20877    0.644373    -5.38867  -0.000369084
1140     0.21159    0.645641    -5.65719  -0.000101762
1150    0.210805    0.645288    -6.46124  0.000385581
1160    0.203879    0.642175    -5.16531  0.000523314
1170    0.200339    0.640584    -7.08227  0.000260984
1180    0.198659    0.639829    -6.14676  0.00026719
1190    0.194995    0.638182    -8.15366  -3.51362e-05
1200    0.199362    0.640145    -7.26315  2.58662e-05
1210    0.194478     0.63795    -8.91278  0.000505517
1220    0.189252    0.635601    -7.21683  0.000169639
1230    0.191085    0.636425    -10.2511  -0.0002112
1240    0.193476    0.637499    -9.00412  0.000264558
1250    0.185794    0.634047    -9.62659  0.000231305
1260    0.188849     0.63542    -8.78088  -0.000128298
1270     0.18836      0.6352    -8.87086  0.000210153
1280    0.184646    0.633531    -7.88907  0.000232691
1290    0.183706    0.633108    -7.66657  1.6205e-05
1300    0.184322    0.633385    -6.15072  0.000178021
1310    0.180146    0.631508     -5.9721  0.000540971
1320    0.173503    0.628522    -6.86326  0.000212374
1330    0.175898    0.629599    -6.28598  -0.000144701
1340    0.176397    0.629823    -7.31148  6.77057e-05
1350    0.174544     0.62899    -5.43922  2.84724e-05
1360    0.175827    0.629567    -6.33216  0.000303825
1370    0.168467    0.626259    -7.31056  0.000349006
1380    0.168847     0.62643    -6.86561  8.57614e-05
1390    0.166752    0.625488    -6.41966  8.5821e-05
1400    0.167131    0.625658     -7.4904  -0.000410181
1410    0.174956    0.629175    -7.13678  -2.10524e-05
1420    0.167552    0.625848    -8.56178  0.000345492
1430    0.168046     0.62607    -6.02056  5.24089e-05
1440    0.166504    0.625376    -7.22398  0.000114757
1450    0.165751    0.625038     -5.6191  -0.000117535
1460    0.168854    0.626433    -7.76135  0.000126646
1470    0.163218      0.6239     -6.3784  0.00017194
1480    0.165416    0.624887    -6.37909  0.000298063
1490    0.157257     0.62122    -5.30727  0.000184141
1500    0.161733    0.623232     -6.3343  -8.85993e-05
1510    0.159029    0.622017    -6.64643  0.00012788
1520    0.159175    0.622083    -6.42293  -5.47029e-05
1530    0.160123    0.622508    -6.42533  0.000369024
1540    0.151795    0.618765     -5.8422  0.000168638
1550     0.15675    0.620992    -6.24588  -0.000203291
1560    0.155861    0.620593    -7.53972  -0.000117894
1570    0.159108    0.622052    -5.04408  0.000204265
1580    0.151775    0.618757    -6.46921  0.000469154
1590    0.149725    0.617835    -6.87101  0.000228368
1600    0.147208    0.616704    -7.04802  -6.56836e-05
1610    0.151038    0.618425    -6.02395  -0.000100157
1620    0.149211    0.617604     -7.0057  0.000258206
1630    0.145874    0.616104    -7.36141  0.00035146
1640    0.142182    0.614445    -7.18306  0.000102755
1650    0.143819    0.615181    -5.97985  -7.04825e-06
1660    0.142323    0.614508    -8.61132  -9.45136e-05
1670     0.14571     0.61603    -7.80949  0.000249135
1680     0.13734    0.612269     -6.7382  0.000307333
1690    0.139563    0.613268    -7.63105  -6.51106e-06
1700     0.13747    0.612327    -7.18449  5.75013e-05
1710    0.138413    0.612751     -6.7836  0.00011048
1720    0.135261    0.611334    -8.47894  6.36674e-05
1730    0.137139    0.612178    -7.18641  7.58156e-05
1740    0.133744    0.610652    -7.14074  0.000216625
1750    0.132807    0.610231    -6.42785  8.20875e-05
1760    0.132103    0.609914    -8.56862  -1.18956e-05
1770    0.133045    0.610338    -9.68449  8.24526e-05
1780    0.130454    0.609173    -10.1301  0.000289018
1790    0.127265     0.60774    -9.46091  2.3818e-05
1800    0.129977    0.608959    -9.55146  2.41891e-05
1810    0.126781    0.607522    -9.55094  0.000248982
1820    0.124998    0.606721    -8.48081  0.000107384
1830    0.124633    0.606557    -7.45566  0.000137395
1840     0.12225    0.605486    -8.43815  0.00032188
1850    0.118195    0.603664    -8.30355  0.000120214
1860    0.119845    0.604405    -9.06272  3.74172e-05
1870    0.117447    0.603327    -9.15183  0.000359489
1880    0.112656    0.601174    -7.90226  0.00021685
1890     0.11311    0.601378    -8.03739  -1.55956e-05
1900    0.112968    0.601314    -8.26063  0.000229886
1910    0.108512    0.599312    -8.43776  -0.000189578
1920    0.116759    0.603018    -7.77114  -0.000159243
1930    0.111697    0.600743    -9.19614  5.59829e-05
1940    0.115639    0.602515    -8.97535  -7.57225e-05
1950    0.113212    0.601424    -10.4909  6.82827e-05
1960    0.114274    0.601901    -9.15435  0.000141055
1970    0.110391    0.600156    -8.84114  9.88372e-05
1980    0.112297    0.601013    -10.1796  5.10629e-05
1990    0.109369    0.599697    -10.4014  0.000190181
2000    0.108493    0.599303    -11.1603  0.000227187
2010    0.104826    0.597655    -9.42021  0.000282222
2020    0.102849    0.596766    -10.0891  -0.00014254
2030    0.107676    0.598936    -9.51211  0.000167975
2040   0.0994895    0.595256    -10.4464  -3.35179e-05
2050    0.108347    0.599237    -10.4049  -0.000172909
2060    0.102948     0.59681    -9.55621  0.000393969
2070    0.100467    0.595696    -9.95749  -4.52943e-05
2080    0.103854    0.597218    -10.8942  -0.000192051
2090    0.104308    0.597422    -11.1621  3.41948e-05
2100     0.10317     0.59691    -10.4937  -4.56393e-05
2110    0.105221    0.597832    -10.9859  0.000354105
2120   0.0960876    0.593727    -8.66378   0.0001388
2130    0.102445    0.596585    -10.3164  -0.000211227
2140    0.100312    0.595626    -10.0477  -2.09529e-05
2150    0.102864    0.596773    -10.7186  0.000115255
2160    0.098007     0.59459    -10.8505  0.000195492
2170   0.0989544    0.595016    -11.5655  -0.000193967
2180    0.101886    0.596333    -10.7628  -2.05882e-05
2190   0.0993662    0.595201    -10.8968  0.00027093
2200   0.0964678    0.593898    -11.2083  0.000122323
2210   0.0969197    0.594101    -11.0317  9.7955e-05
2220   0.0945087    0.593017    -10.8087  0.000235184
2230    0.092216    0.591987    -10.3182  0.00012969
2240   0.0919149    0.591852    -9.87321  0.000336481
2250   0.0854864    0.588962    -10.8079  0.000249281
2260   0.0869293    0.589611    -9.56078  8.74523e-05
2270   0.0837374    0.588176    -8.48966  0.00025686
2280   0.0817921    0.587302    -8.49009  0.000175906
2290   0.0802193    0.586595    -10.0503  0.000188948
2300   0.0780131    0.585603    -8.53414  0.000107503
2310   0.0780692    0.585629    -8.44669  7.00206e-06
2320   0.0778731     0.58554    -9.69564  0.000278641
2330   0.0724964    0.583124    -10.3194  -5.62295e-06
2340   0.0779855    0.585591    -9.74053  7.74331e-05
2350   0.0709477    0.582428    -9.38186  0.000330494
2360   0.0713756     0.58262    -9.42692  -0.000315906
2370   0.0772658    0.585267    -10.5445  -8.7472e-05
2380   0.0731251    0.583406    -10.5877  3.90016e-05
2390   0.0764858    0.584917    -8.09172  0.00018623
2400   0.0694005    0.581732    -9.24978  0.000339206
2410   0.0697017    0.581868    -10.3206  -0.000304972
2420   0.0754999    0.584474    -7.37866  -1.73923e-05
2430   0.0700495    0.582024    -11.2131  0.000468883
2440   0.0661223    0.580259    -9.82951  4.02614e-05
2450   0.0692443    0.581662    -9.34064  -0.000139112
2460   0.0689045    0.581509    -8.44861  -6.8906e-05
2470   0.0706224    0.582282    -8.94118  -6.89458e-05
2480   0.0702834    0.582129    -9.52099  8.55491e-05
2490   0.0689114    0.581513    -8.36089  0.000453957
2500   0.0612043    0.578048    -8.71494  0.000344769
2510    0.062016    0.578413    -9.42983  -0.000152519
2520   0.0642547    0.579419    -8.94005  -3.60709e-05
2530   0.0627375    0.578738    -8.49292  2.53953e-06
2540   0.0642039    0.579397     -8.5836  9.26293e-06
2550   0.0625522    0.578654    -8.00335  2.57939e-06
2560   0.0641523    0.579373    -8.54085  -2.33002e-05
2570   0.0630182    0.578864    -9.65472  0.000420505
2580   0.0557422    0.575593    -12.2405  0.000290451
2590   0.0572092    0.576253    -10.8146  -6.17914e-05
2600    0.056978    0.576149    -10.9934  -6.20434e-05
2610   0.0584501    0.576811    -10.9053  0.000292466
2620   0.0511287     0.57352    -11.4397  -3.19593e-06
2630    0.058514    0.576839    -11.2628  -0.000212878
2640   0.0553863    0.575433    -10.0592  0.000181363
2650   0.0548867    0.575209    -11.7536  0.000307458
2660   0.0492371     0.57267    -11.9312  0.000347587
2670    0.047935    0.572084    -10.9939  -1.52042e-05
2680   0.0495412    0.572806    -9.30019  1.14644e-05
2690   0.0477057    0.571981    -12.1995  0.000117443
2700   0.0471923    0.571751    -10.9066  -8.81549e-05
2710   0.0494688    0.572774    -10.7732  -0.000141459
2720   0.0500215    0.573022    -10.5066  0.000224581
2730   0.0449772    0.570755    -10.8618  0.00012471
2740   0.0475273    0.571901    -10.6854  -0.000135054
2750   0.0476782    0.571969     -11.488  0.000326157
2760   0.0410042    0.568969    -10.6392  0.000393598
2770   0.0398063    0.568431    -10.0604  -2.76832e-05
2780   0.0415578    0.569218    -10.7291  -6.7885e-05
2790    0.041164    0.569041    -9.97086  -0.000108597
2800   0.0437298    0.570194    -10.1509  -0.000297386
2810   0.0471117    0.571714    -9.21518  -0.000149701
2820   0.0467238     0.57154    -9.88523  0.000437539
2830   0.0383609    0.567781    -10.6853  0.000620904
2840   0.0343057    0.565959    -11.1748  0.000101151
2850   0.0363379    0.566872    -11.3092  -0.000156013
2860    0.037426    0.567361     -10.017  3.37701e-05
2870   0.0356625    0.566568    -9.65982  -8.20084e-05
2880   0.0390662    0.568098    -9.97356  -0.000238619
2890   0.0404349    0.568713     -9.7508  0.000238254
2900   0.0343011    0.565957    -9.34734  0.000170051
2910   0.0370339    0.567185    -10.1069  -0.000451583
2920   0.0433327    0.570016    -10.1527  -7.56958e-05
2930   0.0385478    0.567865    -10.4639  0.000245859
2940   0.0384156    0.567806    -10.4206  5.44446e-05
2950   0.0374589    0.567376    -12.2041  0.000481249
2960   0.0287906     0.56348    -11.4888  -4.86229e-05
2970   0.0384313    0.567813    -10.4213  -0.00053747
2980     0.03954    0.568311    -10.5113  0.000469499
2990   0.0290414    0.563592    -10.9109  0.00044228
3000   0.0306944    0.564335    -9.35096  7.70885e-05
3010   0.0274996      0.5629    -11.2232  0.000229674
3020   0.0261009    0.562271    -8.94897  0.000223494
3030   0.0230297     0.56089    -8.90387  -7.53246e-05
3040   0.0276074    0.562948    -9.88754  5.0506e-05
3050   0.0220196    0.560436    -9.03848  9.18218e-05
3060    0.025771    0.562123    -10.4669  -6.80574e-05
3070   0.0233807    0.561048    -9.21818  0.000197349
3080    0.021824    0.560349    -9.44142  5.77334e-05
3090   0.0222261    0.560529    -10.0208  -0.000124498
3100   0.0243139    0.561468    -11.1367  0.00014248
3110   0.0193765    0.559249    -8.46041  0.000255056
3120   0.0192128    0.559175    -10.2889  -7.53312e-05
3130   0.0208831    0.559926    -8.90806  -0.000237856
3140   0.0239699    0.561313    -8.32864  0.000101065
3150   0.0188618    0.559017    -9.88959  0.000313247
3160    0.017705    0.558497      -10.38  0.000101648
3170   0.0168288    0.558103    -10.2016  0.000180123
3180   0.0141025    0.556878    -11.1383  0.000166291
3190    0.013503    0.556609    -10.1575  6.00608e-05
3200   0.0129013    0.556338    -9.57763  -6.10753e-05
3210   0.0147245    0.557158    -8.15194  6.75468e-05
3220   0.0115504    0.555731     -9.8892  0.000131792
3230   0.0120887    0.555973    -9.75629  8.23067e-05
3240  0.00990426    0.554991    -10.4698  -4.68657e-05
3250    0.013026    0.556394    -8.64199  -0.000348562
3260   0.0168755    0.558124    -8.19739  0.000197628
3270  0.00907343    0.554618    -9.08711  0.000168499
3280   0.0135055     0.55661    -9.89138  -8.28106e-05
3290   0.0107296    0.555362    -9.44551  2.48784e-05
3300    0.013008    0.556386    -8.59898  0.000105004
3310  0.00862958    0.554418     -7.7507  0.000394937
3320  0.00510921    0.552836    -6.72463  -3.33521e-06
3330  0.00869628    0.554448    -8.19891  -0.000337442
3340   0.0118581    0.555869    -7.53064  3.30739e-05
3350   0.0080348    0.554151    -6.81526  0.000105607
3360  0.00974592     0.55492    -7.88652  4.05864e-05
3370  0.00722307    0.553786    -8.55549  0.000120891
3380   0.0073281    0.553833     -6.6824  -3.16284e-06
3390  0.00728633    0.553814    -8.73484  0.000349205
3400    0.000344    0.550694    -8.95664  7.03649e-05
3410  0.00587903    0.553182    -8.06579  -0.000142029
3420  0.00318459    0.551971    -8.02073  0.000181396
3430  0.00225112    0.551551    -9.62691  0.000278124
3440  -0.0023779    0.549471    -7.44118  0.000256468
3450  -0.00287825    0.549246    -10.1174  7.97606e-05
3460  -0.00397311    0.548754    -9.49283  -0.000201977
3470   0.0011613    0.551062    -10.4317  -3.11908e-05
3480  -0.00334929    0.549034    -11.0103  0.000325215
3490  -0.00534301    0.548138    -11.8133  0.000177311
3500  -0.00689552     0.54744    -12.7049  -0.000105793
3510  -0.00322716    0.549089    -11.0571  0.000170939
3520  -0.0103143    0.545904    -10.6988  0.000410267
3530  -0.0114325    0.545401    -12.0809  -0.00015051
3540  -0.0073041    0.547257    -11.6365  -0.000180627
3550  -0.00781997    0.547025    -11.6824  0.000277395
3560   -0.012852    0.544763    -11.5467  0.000195002
3570    -0.01172    0.545272    -11.1468  0.00013573
3580  -0.0155666    0.543543    -12.0382  0.000317192
3590  -0.0180639    0.542421    -10.6553  -8.29698e-05
3600  -0.0139072    0.544289    -11.7713  -0.000355683
3610  -0.0109502    0.545618    -11.1482  0.000197482
3620  -0.0178568    0.542514    -11.1468  7.56628e-05
3630  -0.0124634    0.544938    -10.6132  -2.98049e-05
3640  -0.0172607    0.542782     -11.326  0.00035079
3650  -0.0194792    0.541784    -10.2102  8.22209e-06
3660  -0.0174252    0.542708    -11.2364  -0.000228699
3670  -0.0149053     0.54384    -10.2576  0.000146273
3680  -0.0203506    0.541393    -11.2815  0.000215226
3690  -0.0192098    0.541906    -10.5684  1.64507e-05
3700  -0.0206797    0.541245    -10.9707  7.79105e-05
3710   -0.020768    0.541205    -11.6836  0.000286592
3720  -0.0264115    0.538669    -10.7461  -6.83955e-05
3730  -0.0194001     0.54182    -10.7922  -0.000183723
3740   -0.022737     0.54032    -10.2122  -4.56059e-05
3750   -0.018488     0.54223    -10.4809  9.46465e-05
3760    -0.02463    0.539469    -10.9256  0.000335221
3770  -0.0251924    0.539217    -10.9708  -0.000130631
3780  -0.0220173    0.540644    -12.2201  -4.4976e-05
3790  -0.0242929    0.539621    -12.5769  9.15695e-06
3800  -0.0222005    0.540561    -10.8825  5.65333e-05
3810  -0.0254235    0.539113    -11.1493  0.00024444
3820  -0.0270893    0.538364    -11.1496  -0.000100163
3830  -0.0234203    0.540013    -9.54482  -0.000367486
3840  -0.0197396    0.541667    -11.9096  -4.56655e-05
3850  -0.0225069    0.540424    -10.2137  0.000458685
3860  -0.0289133    0.537544    -10.6586  8.83804e-05
3870  -0.0242746    0.539629    -10.1692  -0.000322092
3880  -0.0224714     0.54044    -10.1258  -0.000204431
3890  -0.0201859    0.541467    -10.7509  9.6755e-05
3900  -0.0244065     0.53957    -11.1509  -0.000134165
3910  -0.0175026    0.542673    -10.9296  -0.000141685
3920  -0.0215728    0.540843    -11.7766  0.000423708
3930  -0.0259768    0.538864    -11.4186  -7.06301e-05
3940  -0.0201602    0.541478    -11.7762  -0.000462471
3950  -0.0167274    0.543021    -11.3752  5.72626e-05
3960  -0.0213055    0.540964    -10.9288  6.48083e-05
3970  -0.0180235    0.542439    -9.94884  -0.000248226
3980  -0.0163409    0.543195    -11.7773  0.000234521
3990   -0.022714    0.540331    -10.8845  -6.41387e-05
4000  -0.0150582    0.543772       -11.6  -0.000216863
4010  -0.0183767     0.54228    -11.4651  0.000227081
4020  -0.0195998     0.54173    -11.8665  8.93157e-06
4030  -0.0185553      0.5422    -12.2239  -0.000283515
4040  -0.0139295    0.544279    -12.3143  -3.17544e-05
4050  -0.0179202    0.542485    -12.0005  0.000342628
4060   -0.020782    0.541199    -12.0451  -0.000260739
4070  -0.0127055    0.544829    -12.1812  0.000156743
4080  -0.0239169     0.53979    -11.5984  0.000294979
4090   -0.018605    0.542177    -11.3324  -0.000351373
4100  -0.0168894    0.542948    -13.0279  -2.3844e-05
4110  -0.0181282    0.542392    -11.4669  -9.83397e-05
4120  -0.0149226    0.543832    -9.99543  -0.000197309
4130   -0.014182    0.544165    -10.0845  0.000149058
4140  -0.0179038    0.542493    -9.99386  -3.30341e-05
4150  -0.0135213    0.544462    -10.2191  5.05192e-05
4160  -0.0189142    0.542038    -9.01324  0.00012465
4170  -0.0160143    0.543342    -10.5749  -4.07323e-05
4180  -0.0180995    0.542405    -10.1737  -0.000274782
4190  -0.0105187    0.545812    -8.70377  -0.000324997
4200  -0.0115996    0.545326    -10.8437  0.000317464
4210  -0.0168679    0.542958    -9.95011  0.000443925
4220  -0.0204781    0.541335    -9.90553  0.000160125
4230  -0.0200704    0.541519    -8.65801  -0.000402569
4240  -0.0124267    0.544954       -9.24  8.53634e-05
4250  -0.0217777    0.540751    -9.05943  0.000540017
4260   -0.023227      0.5401    -10.2194  -0.000193052
4270  -0.0179167    0.542487    -9.41771  -0.000379487
4280  -0.0156373    0.543511    -8.65989  -0.000194412
4290  -0.0140284    0.544234    -10.4885  0.000416865
4300  -0.0239746    0.539764    -10.4415  0.000238506
4310  -0.0187985     0.54209    -10.0859  -0.000288196
4320  -0.0182107    0.542355     -8.8823  -0.000161437
4330  -0.0155698    0.543542    -7.99092  -0.000136155
4340  -0.0154876    0.543579    -9.06169  -5.11094e-05
4350  -0.0145476    0.544001    -8.34819  2.6105e-05
4360  -0.0160097    0.543344    -7.67948  8.62321e-05
4370  -0.0162722    0.543226    -7.81326  5.2157e-05
4380  -0.0170528    0.542875    -6.87687  -1.68088e-05
4390  -0.0159361    0.543377    -7.85766  -0.000129166
4400  -0.0144695    0.544036    -7.54532  -6.0253e-05
4410   -0.014731    0.543919    -7.67931  -0.000216916
4420  -0.0101312    0.545986    -7.81453  0.000148077
4430  -0.0176925    0.542587    -7.00965  0.00023464
4440   -0.014824    0.543877    -7.94734  -8.6557e-05
4450  -0.0159614    0.543366    -7.45738  -9.59593e-05
4460  -0.0129048    0.544739    -8.12626  7.0524e-05
4470  -0.0173719    0.542732    -8.30453  0.000561626
4480  -0.0241373    0.539691    -9.81934  0.000176569
4490  -0.0209032    0.541144    -8.12618  -7.73735e-05
4500  -0.0225898    0.540386    -9.50877  0.000107198
4510  -0.0230472    0.540181    -9.15268  -0.000228248
4520  -0.0180249    0.542438    -10.1347  6.37408e-05
4530   -0.024322    0.539608    -8.57243  0.000240396
4540  -0.0228328    0.540277    -9.01855  -8.69615e-05
4550  -0.0225828    0.540389    -8.52755  6.4079e-05
4560  -0.0241144    0.539701    -7.94795  -0.000274928
4570  -0.0170842    0.542861    -8.44022  -0.000239447
4580  -0.0193254    0.541854    -8.39547  0.00032306
4590  -0.0235454    0.539957    -7.99323  -5.27803e-05
4600  -0.0182698    0.542328    -6.96833  -0.000276825
4610  -0.0180089    0.542445    -8.84286  9.9951e-05
4620  -0.0202688     0.54143     -8.5747  0.000190294
4630  -0.0218148    0.540735    -9.77899  0.000227214
4640  -0.0248131    0.539387    -10.6258  0.000200771
4650  -0.0258302     0.53893    -9.19895  -0.000233805
4660   -0.020137    0.541489    -7.81622  -6.78319e-06
4670  -0.0256946    0.538991    -9.42119  -6.25207e-05
4680  -0.0188866    0.542051    -8.97733  -0.000408331
4690   -0.017528    0.542661    -7.59525  0.000430663
4700  -0.0274999    0.538179    -8.93114  0.000266322
4710  -0.0228544    0.540267    -8.57552  3.01696e-05
4720  -0.0281032    0.537908    -10.3141  6.61544e-05
4730  -0.0241775    0.539673    -9.64569  -0.000678896
4740  -0.0145253    0.544011    -8.88953  -0.00013644
4750  -0.0214487    0.540899    -8.75422  0.000638184
4760   -0.027289    0.538274    -8.66485  -0.000174526
4770  -0.0179582    0.542468     -9.2027  -0.000368653
4780  -0.0199159    0.541588    -8.17624  0.000251953
4790  -0.0229972    0.540203     -8.8002  0.00033666
4800  -0.0266491    0.538562    -8.57631  0.000328544
4810  -0.0295681     0.53725    -9.64691  0.000245707
4820  -0.0315633    0.536353    -8.22038  2.18282e-05
4830  -0.0300047    0.537054    -9.91585  -7.16313e-05
4840  -0.0301306    0.536997    -9.42467  -0.000128529
4850  -0.0274341    0.538209    -9.20244  -0.000100475
4860  -0.0281211      0.5379    -8.48911  0.000522167
4870  -0.0378774    0.533515    -8.17511  -0.000214834
4880  -0.0238245    0.539831    -8.22282  -0.000677922
4890   -0.024319    0.539609    -8.22256  -0.000102504
4900  -0.0217744    0.540753    -9.15947  0.000240064
4910  -0.0291203    0.537451    -9.20266  0.000449892
4920  -0.0307722    0.536709    -9.29164  -6.49812e-06
4930  -0.0289903     0.53751    -8.13249  -0.000216857
4940  -0.0264351    0.538658    -7.99993  -0.000179241
4950  -0.0254055    0.539121    -8.71278  4.10042e-05
4960  -0.0272552    0.538289    -8.48972  0.000108286
4970  -0.0275712    0.538147    -7.33075  0.000272966
4980  -0.0327145    0.535836    -7.01753  8.01849e-05
4990  -0.0291749    0.537427    -7.24203  -0.000112596
