Time   Number   
ps   
0          21          30
10          24          26
20          28          27
30          25          29
40          25          28
50          23          26
60          28          23
70          27          29
80          30          23
90          27          31
100          26          32
110          21          30
120          26          29
130          27          28
140          24          32
150          23          30
160          24          32
170          22          28
180          20          31
190          23          29
200          27          24
210          23          26
220          24          27
230          23          28
240          23          35
250          27          31
260          24          38
270          23          31
280          24          36
290          23          29
300          25          28
310          24          35
320          24          30
330          26          35
340          24          33
350          23          33
360          25          21
370          27          34
380          23          31
390          25          28
400          24          30
410          26          26
420          22          29
430          22          29
440          22          33
450          24          31
460          20          28
470          26          24
480          23          26
490          23          27
500          25          28
510          21          32
520          19          30
530          24          29
540          22          28
550          26          35
560          26          27
570          24          30
580          27          26
590          23          23
600          20          26
610          22          27
620          21          29
630          29          27
640          25          24
650          23          28
660          22          29
670          23          26
680          23          25
690          28          26
700          24          33
710          26          28
720          25          27
730          23          33
740          28          21
750          17          33
760          22          30
770          23          27
780          22          26
790          22          28
800          23          29
810          19          33
820          23          28
830          25          21
840          22          24
850          20          32
860          21          25
870          21          34
880          24          25
890          27          21
900          25          25
910          22          28
920          24          29
930          23          29
940          27          24
950          23          27
960          21          26
970          21          23
980          24          25
990          25          26
1000          21          26
1010          22          29
1020          21          25
1030          24          27
1040          20          30
1050          25          26
1060          18          33
1070          21          31
1080          24          30
1090          22          30
1100          25          27
1110          24          26
1120          23          28
1130          20          30
1140          22          27
1150          19          30
1160          19          26
1170          24          23
1180          21          23
1190          19          29
1200          20          31
1210          23          28
1220          23          29
1230          21          31
1240          27          27
1250          17          32
1260          20          25
1270          23          27
1280          21          28
1290          20          26
1300          24          29
1310          20          31
1320          20          32
1330          20          32
1340          23          30
1350          20          27
1360          20          32
1370          23          34
1380          22          35
1390          22          32
1400          16          37
1410          21          27
1420          23          22
1430          19          35
1440          28          19
1450          20          28
1460          25          27
1470          26          24
1480          19          32
1490          19          34
1500          23          28
1510          18          32
1520          20          26
1530          21          26
1540          20          32
1550          22          23
1560          26          27
1570          23          29
1580          24          30
1590          24          26
1600          21          28
1610          23          25
1620          21          30
1630          24          25
1640          26          23
1650          23          24
1660          23          25
1670          20          20
1680          24          28
1690          24          28
1700          28          29
1710          30          28
1720          27          27
1730          25          29
1740          21          25
1750          26          29
1760          26          33
1770          26          26
1780          28          27
1790          22          28
1800          24          31
1810          20          34
1820          25          25
1830          22          28
1840          24          24
1850          22          26
1860          22          22
1870          24          23
1880          28          23
1890          25          23
1900          23          24
1910          23          26
1920          24          23
1930          24          25
1940          24          30
1950          25          28
1960          25          26
1970          20          29
1980          23          29
1990          22          28
2000          21          32
2010          23          29
2020          24          28
2030          26          27
2040          21          30
2050          20          27
2060          24          26
2070          22          33
2080          24          23
2090          27          24
2100          24          26
2110          24          31
2120          24          28
2130          25          29
2140          19          29
2150          24          24
2160          24          30
2170          27          25
2180          22          31
2190          19          38
2200          24          25
2210          24          26
2220          22          28
2230          25          31
2240          22          31
2250          27          26
2260          26          20
2270          21          30
2280          24          27
2290          21          24
2300          25          24
2310          22          28
2320          22          30
2330          20          35
2340          21          29
2350          23          26
2360          21          28
2370          19          32
2380          24          27
2390          20          32
2400          26          26
2410          19          34
2420          24          32
2430          22          34
2440          26          30
2450          24          27
2460          27          24
2470          22          27
2480          21          29
2490          23          32
2500          21          29
2510          16          33
2520          21          37
2530          25          27
2540          24          27
2550          26          27
2560          20          31
2570          21          31
2580          24          24
2590          20          32
2600          26          22
2610          24          28
2620          22          30
2630          20          31
2640          23          31
2650          21          35
2660          23          30
2670          23          30
2680          24          33
2690          23          29
2700          25          27
2710          23          31
2720          24          32
2730          22          29
2740          24          24
2750          19          34
2760          21          26
2770          21          27
2780          20          25
2790          21          30
2800          26          18
2810          22          26
2820          25          25
2830          22          22
2840          20          25
2850          19          25
2860          17          23
2870          19          32
2880          25          26
2890          25          26
2900          19          34
2910          20          31
2920          22          26
2930          21          31
2940          16          35
2950          23          29
2960          21          33
2970          22          31
2980          21          37
2990          22          31
3000          23          31
3010          24          29
3020          22          30
3030          20          27
3040          21          34
3050          22          31
3060          23          25
3070          28          29
3080          20          35
3090          22          25
3100          21          28
3110          24          27
3120          20          28
3130          17          30
3140          20          32
3150          19          32
3160          22          25
3170          23          34
3180          20          33
3190          19          34
3200          20          34
3210          23          26
3220          19          30
3230          25          26
3240          19          35
3250          25          26
3260          22          29
3270          21          28
3280          21          28
3290          16          33
3300          20          24
3310          21          28
3320          23          26
3330          19          32
3340          20          32
3350          28          23
3360          22          31
3370          24          27
3380          23          31
3390          21          30
3400          21          29
3410          20          30
3420          22          31
3430          18          34
3440          25          26
3450          27          21
3460          21          28
3470          26          23
3480          22          31
3490          24          24
3500          24          30
3510          21          31
3520          22          31
3530          25          27
3540          24          26
3550          24          28
3560          21          31
3570          21          32
3580          21          32
3590          17          38
3600          20          31
3610          22          26
3620          21          28
3630          19          29
3640          20          38
3650          21          34
3660          23          31
3670          20          36
3680          27          32
3690          25          27
3700          22          28
3710          20          32
3720          23          31
3730          20          35
3740          19          27
3750          23          23
3760          21          25
3770          22          24
3780          23          27
3790          20          29
3800          18          28
3810          18          28
3820          19          28
3830          20          27
3840          21          26
3850          26          30
3860          24          25
3870          20          33
3880          19          34
3890          22          35
3900          24          30
3910          20          30
3920          21          28
3930          18          34
3940          22          33
3950          18          28
3960          17          33
3970          21          23
3980          23          22
3990          20          31
4000          18          35
4010          20          33
4020          24          23
4030          21          29
4040          19          27
4050          24          21
4060          22          26
4070          19          24
4080          18          32
4090          23          31
4100          17          33
4110          17          32
4120          16          23
4130          19          29
4140          16          30
4150          19          29
4160          17          26
4170          20          27
4180          17          30
4190          18          29
4200          18          28
4210          19          25
4220          20          25
4230          16          31
4240          18          31
4250          23          17
4260          17          27
4270          21          25
4280          16          30
4290          15          30
4300          17          30
4310          20          29
4320          20          28
4330          17          32
4340          19          30
4350          23          22
4360          22          30
4370          18          33
4380          22          26
4390          23          25
4400          20          28
4410          20          28
4420          21          31
4430          24          28
4440          18          31
4450          17          30
4460          21          25
4470          20          28
4480          20          31
4490          22          25
4500          21          33
4510          24          26
4520          23          25
4530          22          28
4540          17          32
4550          19          31
4560          20          25
4570          19          29
4580          19          28
4590          23          27
4600          19          27
4610          20          25
4620          23          27
4630          22          21
4640          20          31
4650          20          24
4660          18          31
4670          21          25
4680          22          23
4690          20          23
4700          21          26
4710          18          28
4720          23          29
4730          18          31
4740          19          30
4750          20          30
4760          19          27
4770          20          26
4780          24          25
4790          19          25
4800          19          26
4810          22          21
4820          20          17
4830          23          21
4840          22          24
4850          21          24
4860          21          23
4870          23          23
4880          23          27
4890          20          23
4900          19          27
4910          23          25
4920          23          26
4930          19          27
4940          19          26
4950          24          28
4960          22          27
4970          20          28
4980          18          31
4990          21          31
5000          23          28
5010          25          26
5020          23          30
5030          22          28
5040          24          28
5050          22          25
5060          22          30
5070          23          20
5080          21          24
5090          23          28
5100          22          29
5110          22          27
5120          22          31
5130          24          26
5140          24          25
5150          23          32
5160          23          30
5170          24          25
5180          23          29
5190          23          25
5200          23          23
5210          19          26
5220          20          33
5230          23          32
5240          23          29
5250          28          27
5260          22          33
5270          24          22
5280          17          35
5290          23          30
5300          21          32
5310          22          30
5320          26          25
5330          26          24
5340          24          27
5350          24          25
5360          19          33
5370          22          35
5380          23          25
5390          22          27
5400          21          30
5410          25          25
5420          20          31
5430          21          29
5440          21          27
5450          22          29
5460          24          26
5470          25          29
5480          20          32
5490          25          31
5500          23          34
5510          21          29
5520          22          30
5530          22          31
5540          23          30
5550          23          32
5560          20          31
5570          24          30
5580          20          32
5590          23          28
5600          20          32
5610          22          31
5620          23          32
5630          24          30
5640          23          30
5650          25          32
5660          20          28
5670          24          30
5680          22          34
5690          23          31
5700          23          32
5710          24          29
5720          23          33
5730          27          25
5740          26          32
5750          21          31
5760          22          29
5770          26          25
5780          24          30
5790          21          30
5800          24          27
5810          23          29
5820          25          25
5830          25          28
5840          28          31
5850          25          32
5860          25          34
5870          24          27
5880          25          29
5890          25          33
5900          28          29
5910          22          31
5920          22          32
5930          26          24
5940          23          28
5950          25          26
5960          25          23
5970          27          26
5980          21          32
5990          28          30
6000          27          30
6010          22          28
6020          22          34
6030          21          34
6040          24          26
6050          20          31
6060          24          27
6070          25          28
6080          20          29
6090          20          31
6100          23          31
6110          19          35
6120          21          35
6130          19          34
6140          21          34
6150          25          30
6160          22          31
6170          24          33
6180          25          28
6190          22          29
6200          23          34
6210          27          28
6220          20          36
6230          25          29
6240          22          36
6250          26          32
6260          26          36
6270          26          33
6280          33          29
6290          28          31
6300          27          38
6310          24          32
6320          24          36
6330          26          28
6340          23          34
6350          26          38
6360          26          32
6370          30          29
6380          28          28
6390          24          31
6400          27          31
6410          24          35
6420          23          33
6430          26          30
6440          24          34
6450          19          40
6460          30          28
6470          22          35
6480          23          33
6490          25          33
6500          22          28
6510          25          32
6520          26          26
6530          26          25
6540          21          31
6550          32          27
6560          24          28
6570          23          36
6580          26          28
6590          26          35
6600          26          31
6610          26          27
6620          21          33
6630          23          33
6640          24          34
6650          24          30
6660          24          33
6670          24          28
6680          25          30
6690          24          30
6700          22          30
6710          22          33
6720          24          32
6730          25          29
6740          21          35
6750          23          28
6760          23          32
6770          24          29
6780          22          31
6790          27          25
6800          22          31
6810          28          28
6820          23          32
6830          25          33
6840          27          28
6850          24          35
6860          24          35
6870          30          31
6880          21          32
6890          26          29
6900          26          28
6910          25          30
6920          23          28
6930          23          33
6940          26          30
6950          24          33
6960          25          31
6970          21          32
6980          27          30
6990          22          34
7000          25          32
7010          23          39
7020          25          30
7030          19          33
7040          30          30
7050          24          30
7060          27          26
7070          21          35
7080          23          32
7090          24          31
7100          21          37
7110          23          32
7120          23          40
7130          24          37
7140          27          30
7150          24          28
7160          22          30
7170          21          33
7180          26          28
7190          25          28
7200          22          36
7210          21          31
7220          21          33
7230          25          34
7240          25          28
7250          24          29
7260          20          33
7270          23          29
7280          24          28
7290          23          30
7300          24          35
7310          27          28
7320          21          30
7330          23          33
7340          24          31
7350          24          32
7360          21          33
7370          25          30
7380          24          32
7390          23          31
7400          24          32
7410          25          38
7420          22          33
7430          24          31
7440          23          34
7450          26          34
7460          26          30
7470          21          31
7480          26          31
7490          24          29
7500          21          33
7510          24          32
7520          21          31
7530          23          29
7540          21          37
7550          25          29
7560          24          31
7570          23          33
7580          23          30
7590          23          28
7600          23          25
7610          22          28
7620          20          37
7630          21          25
7640          26          34
7650          26          27
7660          25          30
7670          25          26
7680          24          31
7690          28          27
7700          23          28
7710          25          29
7720          27          29
7730          25          34
7740          21          35
7750          22          35
7760          22          35
7770          24          35
7780          22          41
7790          25          34
7800          25          33
7810          25          33
7820          25          30
7830          27          29
7840          22          34
7850          23          24
7860          22          32
7870          22          35
7880          24          27
7890          26          25
7900          25          27
7910          23          31
7920          22          25
7930          23          35
7940          23          30
7950          21          33
7960          27          36
7970          28          30
7980          25          36
7990          25          27
8000          23          30
8010          27          26
8020          28          29
8030          27          36
8040          25          37
8050          26          31
8060          26          32
8070          23          37
8080          23          30
8090          27          31
8100          26          31
8110          19          36
8120          23          35
8130          26          30
8140          26          35
8150          21          34
8160          24          37
8170          28          29
8180          27          28
8190          27          27
8200          20          26
8210          18          33
8220          21          27
8230          27          28
8240          21          33
8250          21          30
8260          23          31
8270          23          31
8280          24          30
8290          22          33
8300          26          30
8310          20          32
8320          24          33
8330          27          29
8340          25          26
8350          27          28
8360          28          28
8370          25          32
8380          24          31
8390          25          29
8400          22          35
8410          30          28
8420          20          35
8430          26          34
8440          23          32
8450          24          29
8460          25          34
8470          29          27
8480          21          36
8490          25          33
8500          24          28
8510          23          33
8520          28          29
8530          28          24
8540          27          34
8550          26          31
8560          29          25
8570          22          35
8580          23          34
8590          27          32
8600          25          35
8610          26          37
8620          28          30
8630          23          33
8640          21          34
8650          25          31
8660          23          33
8670          28          32
8680          22          31
8690          23          32
8700          19          36
8710          25          30
8720          26          30
8730          20          36
8740          27          30
8750          23          37
8760          22          36
8770          23          37
8780          24          31
8790          26          28
8800          27          24
8810          23          31
8820          21          32
8830          22          31
8840          18          39
8850          26          32
8860          26          32
8870          26          29
8880          26          32
8890          24          32
8900          23          31
8910          22          35
8920          28          30
8930          24          28
8940          24          38
8950          24          39
8960          26          37
8970          24          35
8980          25          33
8990          19          35
9000          25          32
9010          24          35
9020          25          34
9030          24          37
9040          22          38
9050          24          33
9060          27          32
9070          20          40
9080          24          31
9090          26          30
9100          25          30
9110          24          36
9120          25          33
9130          22          35
9140          27          32
9150          26          33
9160          22          33
9170          23          31
9180          24          33
9190          26          30
9200          21          39
9210          24          35
9220          31          30
9230          22          34
9240          25          33
9250          24          33
9260          28          32
9270          22          35
9280          27          30
9290          24          30
9300          26          29
9310          26          30
9320          25          27
9330          23          32
9340          23          27
9350          24          36
9360          24          36
9370          22          36
9380          24          30
9390          20          32
9400          22          37
9410          25          31
9420          25          37
9430          26          28
9440          25          32
9450          23          33
9460          27          30
9470          24          34
9480          21          32
9490          25          33
9500          24          38
9510          25          29
9520          23          32
9530          25          30
9540          22          30
9550          21          37
9560          27          29
9570          20          32
9580          21          37
9590          21          30
9600          22          33
9610          30          26
9620          22          32
9630          26          31
9640          21          30
9650          23          33
9660          24          29
9670          26          34
9680          22          34
9690          24          27
9700          23          32
9710          18          42
9720          25          31
9730          23          29
9740          22          34
9750          22          32
9760          25          26
9770          22          33
9780          23          31
9790          22          33
9800          21          30
9810          23          31
9820          21          38
9830          21          33
9840          22          32
9850          20          37
9860          22          34
9870          29          31
9880          20          36
9890          26          37
9900          26          33
9910          27          29
9920          24          36
9930          27          26
9940          24          34
9950          22          29
9960          25          28
9970          23          34
9980          25          36
9990          28          27
10000          25          30
