Time   C(t)   
ps   
0           1           1  1.93483e-09   0.0669318
10     0.33157    0.802262   0.0599308    0.034824
20     0.30352    0.793965    0.610821  0.00271626
30    0.277245    0.786192     1.16308  0.00176456
40    0.268229    0.783525   -0.622538  0.00148018
50    0.247641    0.777434   -0.792335  0.00158828
60    0.236463    0.774128    0.991207  0.000547138
70    0.236698    0.774197    -1.64572  0.000979942
80    0.216864     0.76833   -0.581955  0.00149728
90    0.206753    0.765339   -0.964705  0.000799792
100    0.200868    0.763598   -0.200863  0.000298382
110    0.200785    0.763573    -2.19939  0.000512079
120    0.190627    0.760568    -1.17898  0.000818068
130    0.184424    0.758733    -1.51995  0.000805696
140    0.174513    0.755801    -2.11366  0.000429942
150    0.175825    0.756189    -2.03133  0.000310249
160    0.168308    0.753966   -0.842292  0.000645574
170    0.162913     0.75237    -1.81813  0.00031159
180    0.162076    0.752122    -1.90569  0.000526808
190    0.152377    0.749253      -1.013  0.000792045
200    0.146235    0.747436   -0.673033  0.000435836
210    0.143661    0.746674    -1.31119  0.000264925
220    0.140937    0.745869   -0.504894  0.000588312
230    0.131894    0.743194  -0.0782424  0.000373688
240    0.133463    0.743658    -1.05686  3.71441e-05
250    0.131151    0.742974    -0.46373  0.00016655
260    0.130132    0.742672   -0.762079  0.000498317
270    0.121185    0.740026    -2.07756  0.000160011
280    0.126932    0.741726    -1.69725  -0.000142129
290    0.124028    0.740866   -0.465928  0.000406389
300    0.118804    0.739321    0.129194  0.000392688
310    0.116174    0.738543    0.340239  0.00057461
320    0.107312    0.735922     1.99726  0.000546483
330    0.105244     0.73531  -0.0416823  -0.000213949
340    0.111591    0.737187    0.338746  -0.000105055
350    0.107345    0.735931    0.551491  0.000541386
360    0.100763    0.733984   -0.509249  0.000345882
370    0.100428    0.733885  0.000642915  -0.000221495
380    0.105193    0.735295     1.01748  -3.93603e-05
390    0.101215    0.734118   -0.426797  0.000303379
400   0.0991253      0.7335     0.80569  0.000157905
410   0.0980568    0.733184    0.125917  8.50778e-05
420   0.0974238    0.732996    -0.97976  0.000246459
430   0.0931277    0.731726   -0.596844  0.000239427
440   0.0926352     0.73158   -0.257124  0.000152042
450   0.0900868    0.730826    0.380117  0.000269841
460   0.0872384    0.729983     1.27214  -2.38158e-05
470   0.0905631    0.730967   -0.343805  0.00010159
480   0.0852066    0.729382   -0.385467  0.000425692
490   0.0820493    0.728448    -1.78667  0.000124206
500   0.0827225    0.728647    -1.10881  8.03128e-05
510   0.0804431    0.727973    -3.27514  0.000132125
520     0.08008    0.727866    -1.78866  -7.65547e-07
530   0.0804584    0.727978   0.0374519  0.000199311
540   0.0760938    0.726686  -0.0899795  0.000266275
550   0.0751329    0.726402     -0.3892  0.000222421
560   0.0716453    0.725371   -0.515221  7.20322e-06
570   0.0749888     0.72636   -0.813903  -5.19432e-05
580   0.0726842    0.725678    -1.15371  0.000416977
590   0.0666493    0.723893    -1.06885  5.97306e-05
600   0.0714896    0.725324   -0.984364  0.000127622
610   0.0640968    0.723137   -0.515761  0.000478461
620   0.0619204    0.722494    -1.53658  0.000240394
630   0.0592889    0.721715    -2.68375  0.000106073
640   0.0597989    0.721866    -2.08888  1.46087e-06
650   0.0592597    0.721707    -3.40531  -0.000126191
660   0.0623227    0.722613    -1.75082  -0.000351655
670   0.0662928    0.723787    -2.89758  -2.1378e-05
680   0.0627503    0.722739    -3.23663  4.5919e-05
690   0.0653744    0.723515   -0.902202  -0.000240102
700   0.0675523     0.72416   -0.859836  0.000310199
710   0.0591705     0.72168    -1.53828  0.000748433
720   0.0525837    0.719732    -3.49017  0.000122504
730   0.0567204    0.720955    -1.32545  -0.000346003
740   0.0595037    0.721779   -0.307992  3.96526e-05
750   0.0559273    0.720721  -0.0532118  0.000517368
760   0.0491564    0.718718    -1.70816  -2.08942e-05
770   0.0563452    0.720844    -1.62496  0.000169874
780   0.0457589    0.717713    -1.53882  0.000443261
790     0.04748    0.718222    -2.47346  -0.000385636
800   0.0534716    0.719994    -2.90015  -0.000332806
810   0.0541361    0.720191    -1.41392  8.61559e-05
820   0.0517485    0.719485     -1.7958  0.000300226
830   0.0481316    0.718415    -1.45554  5.59226e-05
840     0.05063    0.719154    -1.62633  -3.56229e-05
850   0.0488441    0.718625   -0.988263  6.38008e-05
860    0.049354    0.718776    -1.11611  -3.57036e-05
870   0.0495581    0.718837    -1.54011  -8.19648e-05
880   0.0509933    0.719261    -1.71152  -0.000189791
890   0.0533539    0.719959    -2.64653  -8.23075e-05
900   0.0526395    0.719748    -1.20151  -0.000244615
910   0.0582462    0.721407    0.410871  -0.000121255
920   0.0550646    0.720466    0.750674  0.000380347
930   0.0506393    0.719156    -1.83949  0.000110344
940   0.0528577    0.719813   -0.310522  -0.000222149
950   0.0550823    0.720471   0.0710672  0.000118515
960   0.0504874    0.719112    0.283812  0.000149513
970    0.052092    0.719586    0.326095  0.000367774
980   0.0431319    0.716936     1.39024  0.000119008
990   0.0497119    0.718882     1.17571  -0.000440601
1000   0.0519439    0.719542   -0.311476  -0.000153321
1010   0.0527783    0.719789     1.64344  0.000205275
1020   0.0478384    0.718328     1.17637  1.00743e-05
1030   0.0525768     0.71973    0.878396  0.000182819
1040   0.0441821    0.717246  -0.0130026  0.000237281
1050   0.0478312    0.718326    0.452822  -0.000145776
1060   0.0470976    0.718109   0.0273737  0.000301152
1070   0.0418081    0.716544    0.368587  1.86376e-05
1080   0.0467248    0.717998    0.578346  5.06941e-05
1090   0.0407943    0.716244     1.25974  0.000664595
1100   0.0334329    0.714066     1.26036  0.000216518
1110   0.0364639    0.714963    0.835448  8.34256e-05
1120   0.0317644    0.713573    0.919974  -0.000209224
1130   0.0406484    0.716201     2.23442  -0.000580826
1140   0.0433809    0.717009     1.21513  -2.80166e-05
1150   0.0412087    0.716367     1.21509  0.000304719
1160   0.0372866    0.715206     1.04558  0.000440239
1170   0.0324039    0.713762     2.02267  0.000457073
1180   0.0281451    0.712502     1.17463  -0.000432975
1190   0.0410634    0.716324     2.57302  -0.00020998
1200   0.0323447    0.713744     2.27753  0.000155135
1210   0.0379607    0.715406      2.1479  0.000228234
1220     0.02778    0.712394     2.27786  0.000187856
1230   0.0342036    0.714294     2.10611  -0.000394955
1240   0.0356791    0.714731     2.44563  0.000108632
1250    0.032031    0.713652     4.18693  0.000325109
1260   0.0291769    0.712807     3.80476  -0.000147871
1270   0.0349884    0.714527     3.33644  -0.000372801
1280   0.0366329    0.715013     3.42051  0.000149231
1290   0.0320038    0.713644     2.23205  0.000205638
1300   0.0325202    0.713796     2.95386  0.000206434
1310   0.0278751    0.712422     4.01642  0.000206605
1320   0.0283881    0.712574     2.31658  0.000126493
1330   0.0253452    0.711674     2.65659  0.000142774
1340   0.0255326    0.711729     2.01877  7.84893e-05
1350   0.0237755    0.711209     1.89154  -6.75283e-05
1360   0.0268832    0.712129     3.03801  -0.000124307
1370   0.0262616    0.711945     3.58882  8.66696e-05
1380   0.0251498    0.711616     1.46556  0.000322963
1390   0.0198023    0.710034     3.37798  0.000511001
1400   0.0149298    0.708593     4.35577  9.59883e-05
1410   0.0178826    0.709466     2.61285  -0.000189327
1420   0.0187163    0.709713     2.39998  3.09988e-05
1430   0.0172626    0.709283    0.870889  -9.19083e-05
1440   0.0205545    0.710257     3.24906  -9.8628e-06
1450   0.0174599    0.709341     2.10325  0.000318067
1460   0.0141931    0.708375     2.56953  1.47791e-05
1470   0.0171643    0.709254     2.78025  6.45463e-05
1480   0.0129022    0.707993     2.90925  8.06956e-05
1490   0.0155504    0.708776     1.37991  -0.000289839
1500    0.018699    0.709708     3.71451  -9.22911e-05
1510   0.0173962    0.709322     2.61128  0.000138673
1520   0.0159255    0.708887     3.88472  4.79539e-05
1530   0.0164371    0.709039     3.16254  0.000155911
1540   0.0128073    0.707965     2.69701  0.000106214
1550   0.0143128     0.70841     3.92725  -0.000125728
1560   0.0153219    0.708709     2.44044  0.00023985
1570  0.00951582    0.706991     3.29043  -0.000351131
1580   0.0223445    0.710786      2.6512  -0.000650914
1590   0.0225341    0.710842     2.65207  0.000231357
1600   0.0177174    0.709417      3.6294  0.000156404
1610    0.019406    0.709917     4.13792  3.1704e-05
1620   0.0170833     0.70923     2.56733  3.99347e-05
1630   0.0186073    0.709681     2.35467  -0.00034547
1640   0.0239927    0.711274      2.6507  -0.000178155
1650   0.0221704    0.710735     2.35314  0.000131984
1660    0.021353    0.710493     3.07499  9.0246e-05
1670   0.0203655    0.710201      1.8437   9.893e-05
1680   0.0193744    0.709908     2.14072  0.000250982
1690   0.0153458    0.708716       2.991  0.000150027
1700   0.0163738     0.70902     3.37288  -0.000229806
1710    0.019942    0.710075      2.5226  -0.000348744
1720   0.0233487    0.711083     2.30886  4.03578e-05
1730   0.0191348    0.709837     3.32856  0.000498247
1740   0.0133838    0.708135     3.83987  7.45098e-05
1750   0.0176446    0.709396     2.73452  -0.000571236
1760   0.0248085    0.711515     2.98772  -1.02758e-05
1770   0.0178501    0.709457     4.51719  0.000278767
1780   0.0192331    0.709866     3.83709  -0.000403115
1790   0.0259124    0.711842      3.6658  0.000254488
1800   0.0141434     0.70836     2.52053  0.000613457
1810   0.0136433    0.708212     3.49828  5.00594e-05
1820   0.0131422    0.708064     3.88049  2.44705e-05
1830   0.0131539    0.708067     3.79451  0.000179182
1840  0.00955854    0.707004     3.11574  -0.000216306
1850     0.01748    0.709347     3.15636  -0.000328031
1860   0.0161192    0.708945     3.92041  0.000231045
1870   0.0128591     0.70798     3.15678  8.4695e-05
1880   0.0144253    0.708443     2.60493  3.33461e-05
1890   0.0121922    0.707783     4.38818  0.00011111
1900   0.0122031    0.707786      2.9015  0.000241492
1910  0.00736233    0.706354     2.35007  3.35476e-05
1920   0.0115321    0.707588     4.55748  3.42226e-05
1930  0.00667788    0.706152     3.62422  -0.000470684
1940   0.0209458    0.710372     2.47381  -0.000348794
1950   0.0136538    0.708215      3.6641  0.000834781
1960  0.00425017    0.705433     2.77348  0.000278032
1970  0.00809313     0.70657     3.49517  6.10405e-05
1980  0.00302936    0.705072     4.08979  8.68811e-05
1990   0.0063555    0.706056      5.1085  -2.63142e-05
2000  0.00355564    0.705228     4.59914  0.000236485
2010   0.0016258    0.704657     3.11246  0.000149282
2020  0.000570007    0.704345     3.24147  9.69152e-05
2030  -0.000312506    0.704084     3.75007  9.71872e-05
2040  -0.00137374     0.70377     2.90034  0.000361971
2050  -0.00755193    0.701942     2.60489  -0.000176019
2060  0.00214664    0.704811     3.40894  -0.000422982
2070  0.000907699    0.704445     5.19286  -0.000362787
2080  0.00940239    0.706958     5.99849  7.99903e-05
2090  -0.000692108    0.703971     5.49029  0.000389635
2100  0.00160968    0.704652     4.89571  -0.000408182
2110  0.00747154    0.706386     5.65843  -9.76708e-05
2120  0.00356309     0.70523      4.2576  4.39544e-05
2130  0.00659245    0.706126     3.95875  -0.000196299
2140  0.00748907    0.706392     4.04344  -4.63403e-07
2150  0.00660172    0.706129     4.42549  7.09738e-05
2160  0.00606959    0.705972     4.72289  0.000250217
2170  0.00159739    0.704649      4.1298  0.000223691
2180  0.00159578    0.704648     5.87097  -0.000385747
2190  0.00931232    0.706931     5.69902  -0.000233473
2200  0.00626524     0.70603     5.23265  0.000206151
2210   0.0051893    0.705711     4.72347  -0.000153583
2220   0.0093369    0.706938     5.65727  -2.73418e-05
2230  0.00573613    0.705873     4.85069  8.95106e-05
2240  0.00754669    0.706409     3.44803  9.91417e-05
2250   0.0037533    0.705286     4.51147  0.00041605
2260  -0.000774314    0.703947     4.29943  -0.000199593
2270  0.00774516    0.706467     5.48698  -0.000517066
2280    0.009567    0.707006     5.95359  -1.87886e-05
2290  0.00812093    0.706578     6.76137  0.000390592
2300  0.00175515    0.704695     5.99799  -0.000100945
2310   0.0101398    0.707176     5.40266  -0.000364913
2320  0.00905341    0.706854     6.33634  -0.000101459
2330    0.012169    0.707776     4.97621  -0.000211319
2340   0.0132798    0.708105      5.4864  -1.03665e-05
2350   0.0123763    0.707837     5.78358  0.000117991
2360     0.01092    0.707407     6.46286  -3.79702e-05
2370   0.0131357    0.708062     5.01875  -0.000221827
2380   0.0153565    0.708719     5.18771  -1.97357e-05
2390   0.0135305    0.708179     5.65495  -4.77927e-05
2400   0.0163124    0.709002      4.9319  -0.000167647
2410   0.0168834    0.709171     5.65478  -0.000168141
2420   0.0196752    0.709997     3.82813  5.37164e-05
2430   0.0158091    0.708853     5.73956  7.19409e-05
2440   0.0182364    0.709571     4.46504  7.25958e-05
2450   0.0143572    0.708423     6.20646  0.00023038
2460   0.0136288    0.708208     6.67332  -0.000234219
2470   0.0190415    0.709809     5.18705  0.000343515
2480  0.00675848    0.706175     5.10377  0.000240555
2490   0.0142304    0.708386     4.63471  -0.000430426
2500    0.015367    0.708722     5.18701  9.20795e-05
2510   0.0123888    0.707841     3.40388  -9.53739e-05
2520   0.0172745    0.709286     4.54981  -0.000329723
2530   0.0189833    0.709792     5.22888  -1.93426e-06
2540   0.0173132    0.709298     5.18713  0.000157845
2550   0.0158264    0.708858     3.95452  0.000186547
2560   0.0135822    0.708194     5.61101  -4.89211e-05
2570   0.0168048    0.709147     3.95452  0.000282021
2580  0.00794181    0.706526     1.95948  1.70861e-05
2590   0.0164631    0.709046     5.35548  -0.000341732
2600   0.0147764    0.708547       4.081  0.000444007
2610  0.00758296    0.706419      5.0597  0.00018841
2620   0.0110082    0.707433     4.37943  -0.000362072
2630   0.0148244    0.708562     3.74219  -0.000163013
2640   0.0142685    0.708397     4.08195  7.47012e-05
2650   0.0133304     0.70812     5.39801  8.4423e-05
2660     0.01258    0.707898     4.63363  -7.78948e-05
2670   0.0148883     0.70858     3.82639  -0.000346054
2680   0.0195011    0.709945       3.699  -1.60183e-06
2690   0.0149203     0.70859     3.61372  0.000160988
2700   0.0162814    0.708993     3.18939  -0.000213213
2710   0.0191846    0.709851     4.88775  -0.000483287
2720   0.0259471    0.711852     4.75895  0.000499194
2730   0.0092007    0.706898     4.76276  0.000798261
2740  0.00998186    0.707129     5.18651  -0.000552024
2750   0.0202412    0.710164     4.03847  -0.000427001
2760   0.0185219    0.709655     4.25047  0.000143096
2770   0.0173793    0.709317     4.76061  -0.000215732
2780   0.0228365    0.710932     3.14612  -0.000215883
2790   0.0216969    0.710595     4.67496  0.000153049
2800   0.0197755    0.710026     4.63185  0.000289879
2810   0.0158993     0.70888     4.20711  6.59668e-05
2820   0.0184562    0.709636     3.78211  -0.000451532
2830     0.02493    0.711551     3.52654  0.000291592
2840   0.0126244    0.707911     4.37748  0.000526395
2850   0.0144021    0.708437      3.0179  -0.000364621
2860   0.0199168    0.710068      5.0556  -0.000355544
2870    0.021513     0.71054     4.07785  3.70132e-05
2880   0.0191765    0.709849     4.03527  0.000105831
2890   0.0193963    0.709914     4.07839  -0.000160222
2900    0.022381    0.710797     4.07768  0.000304205
2910   0.0133122    0.708114     2.59278  0.000383389
2920   0.0147132    0.708529     2.54967  5.80182e-05
2930   0.0121519    0.707771     3.48492  -0.000686758
2940   0.0284483    0.712592      3.6934  3.84941e-05
2950    0.011382    0.707543     3.05947  0.00067346
2960   0.0149791    0.708607     3.35583  3.86956e-05
2970   0.0106081    0.707314     3.86618  0.000218039
2980   0.0106184    0.707317     2.71868  2.88932e-05
2990   0.0100302    0.707143     4.03486  -0.000171355
3000   0.0140455    0.708331     3.52468  -0.000372036
3010   0.0174709    0.709344     3.39646  -0.000262709
3020   0.0192996    0.709885     5.18029  -5.23665e-05
3030   0.0185183    0.709654     4.16142  0.000299843
3040   0.0133028    0.708111     3.94971  8.85737e-05
3050   0.0167468     0.70913     4.75667   8.943e-05
3060   0.0115142    0.707582     3.48165  -7.27871e-05
3070   0.0182025    0.709561      5.3925  -0.000710362
3080   0.0257214    0.711785     4.07466  -0.00011382
3090   0.0204789    0.710234     4.24491  0.000301515
3100   0.0196911    0.710001     3.99009  0.000302704
3110   0.0144249    0.708443     5.51931  0.000496847
3120  0.00975418    0.707062     4.75613  -3.22883e-05
3130   0.0150706    0.708634     4.71202  -0.000256443
3140    0.014883    0.708579     4.07507  -0.000247355
3150   0.0200177    0.710098     5.39063  0.000582428
3160  0.00323447    0.705133     5.64794  0.000172009
3170   0.0165775     0.70908     4.07428  -0.000431756
3180   0.0118696    0.707687     5.00958  0.000347968
3190  0.00961818    0.707021     4.11706  -1.15754e-05
3200   0.0121011    0.707756     3.82012  0.000339788
3210  0.00282243    0.705011     4.71214  -5.30414e-05
3220   0.0131619     0.70807     4.88045  -0.000641998
3230   0.0156624    0.708809     4.36993  5.03717e-05
3240   0.0121545    0.707772     3.69141  0.000693941
3250  0.00178356    0.704704     3.65012  0.00044585
3260  0.00323749    0.705134     4.20146  -0.000103977
3270  0.00386311    0.705319     4.88115  -0.000114797
3280  0.00553344    0.705813     4.24358  -0.00029263
3290   0.0097157     0.70705     3.94627  -0.000261933
3300   0.0107721    0.707363     5.09216  3.04547e-05
3310  0.00910661     0.70687     5.21967  0.000282172
3320  0.00512865    0.705693     4.32939  6.21084e-05
3330  0.00786444    0.706503     4.62567  -0.000200278
3340  0.00913421    0.706878     3.60551  -0.000148284
3350   0.0108301     0.70738      5.1761  -0.000465485
3360   0.0184439    0.709632     4.19852  -4.34809e-05
3370   0.0116997    0.707637      5.7711  0.000283593
3380   0.0127721    0.707954     5.34565  0.000168362
3390  0.00833249    0.706641     4.07237  -4.39644e-05
3400   0.0136513    0.708215     5.21805  0.000222633
3410  0.00387983    0.705324     4.53969  0.000552387
3420  0.00260361    0.704946       4.625  -7.48625e-05
3430  0.00537708    0.705767     3.56277  -0.000235004
3440   0.0073037    0.706337     3.98681  -0.000225131
3450  0.00987971    0.707099     2.49888  0.000363775
3460  2.82082e-05    0.704184     2.58564  0.000138552
3470  0.00710866    0.706279     2.83868  -0.000289809
3480  0.00582438    0.705899     2.71192  9.62805e-05
3490  0.00518305    0.705709     2.11717  1.03262e-05
3500  0.00561786    0.705838     3.60277  0.000172493
3510  0.00173319    0.704689     3.13687  -0.000130221
3520  0.00822228    0.706608     2.66789  -0.000270678
3530  0.00714674     0.70629     3.00803  0.000237936
3540  0.00346356    0.705201     2.71113  -3.32353e-05
3550  0.00781145    0.706487     2.62511  -0.000511676
3560   0.0136971    0.708228     1.73272  4.28462e-05
3570  0.00695452    0.706233     2.24331  0.000533356
3580  0.00302996    0.705072     1.81882  -0.000252151
3590   0.0119975    0.707725     1.13946  -0.000383349
3600   0.0106969    0.707341      2.1575  0.00034965
3610  0.00500453    0.705657      2.5395  0.000339415
3620  0.00390864    0.705332     2.45477  -0.000418488
3630   0.0133743    0.708133     1.47619  -2.21938e-05
3640  0.00435252    0.705464     1.35001  0.000318531
3650  0.00700369    0.706248     2.36855  -0.000309776
3660    0.010548    0.707296     2.41021  3.25804e-05
3670  0.00635208    0.706055     2.75047  0.000387006
3680  0.00280792    0.705007     1.98671  0.00041052
3690  -0.00185831    0.703626      2.6664  -0.000177973
3700  0.00636739     0.70606     2.62337  -0.000456146
3710  0.00726461    0.706325     1.64583  3.29129e-05
3720  0.00570913    0.705865     1.17934  -0.000280168
3730    0.012868    0.707983    0.371013  -0.000179595
3740  0.00930104    0.706928    0.583634  0.000346094
3750  0.00594608    0.705935     1.94285  -0.00047284
3760   0.0187578    0.709725     1.09104  -7.92045e-05
3770  0.00753017    0.706404     2.36693  0.000414469
3780   0.0104685    0.707273      1.4752  -9.10419e-05
3790  0.00935101    0.706942     1.98505  0.000383208
3800   0.0028043    0.705006     3.21745  0.000282082
3810  0.00370937    0.705273     1.22042  -0.000102023
3820  0.00484475    0.705609    0.879951  -0.0002046
3830  0.00780137    0.706484     1.81405  4.5254e-05
3840  0.00393967    0.705342     2.83416   0.0003184
3850  0.00143338      0.7046     1.81426  0.000342367
3860  -0.00290766    0.703316     2.96255  0.000206051
3870  -0.00268763    0.703381     1.17784  -1.05075e-05
3880  -0.00269751    0.703378     2.23941  -0.000503828
3890  0.00738893    0.706362     1.17544  0.000460619
3900  -0.0119099    0.700653     2.02775  0.000724446
3910     -0.0071    0.702076     2.23908  -0.000493351
3920  -0.00204288    0.703572     1.77139  -0.000217747
3930  -0.00274506    0.703364     2.36535  0.000105005
3940  -0.00414297    0.702951     1.68682  -0.000207642
3950  0.00140779    0.704593     3.21472  -0.000230944
3960  0.000475912    0.704317     2.91765  0.000581542
3970   -0.010223    0.701152     2.62133  -0.000395509
3980  0.00838609    0.706657     3.17032  -0.000312708
3990  -0.00396889    0.703002     3.29961  0.000770224
4000  -0.00701839      0.7021     2.06767  0.000118202
4010  -0.00633294    0.702303     3.30028  -0.000678255
4020  0.00654671    0.706113     4.14711  1.57161e-06
4030  -0.00636437    0.702293     3.63983  2.29494e-05
4040  0.00608773    0.705977     1.81185  -0.000870242
4050   0.0110405    0.707442       2.703  0.000353499
4060  -0.000982249    0.703886     2.45013  0.000495124
4070    0.001138    0.704513     3.12845  -0.000224275
4080  0.00350325    0.705212     3.63776  -0.000391106
4090  0.00896012    0.706827     3.12662  4.74905e-05
4100  0.00255344    0.704931     2.57561  0.000653543
4110  -0.00411074     0.70296     1.85417  2.3856e-05
4120  0.00207632     0.70479     1.89575  -0.00013011
4130  -0.00150853     0.70373     4.27371  0.000143731
4140  -0.000798291     0.70394     4.10346  -0.000202948
4150  0.00255042    0.704931      2.3622  0.000264744
4160  -0.00609317    0.702374     2.70292  9.06643e-08
4170  0.00254861     0.70493     3.80577  -7.07421e-05
4180  -0.00467833    0.702792     2.66018  0.000543007
4190  -0.00831154    0.701717     3.29717  -0.000312859
4200  0.00157885    0.704643     3.93246  -0.000155427
4210   -0.005203    0.702637     3.42373  0.000400455
4220  -0.00643025    0.702274     3.67867  -5.92875e-05
4230  -0.00401725    0.702988     3.72092  3.81516e-05
4240  -0.00719329    0.702048     3.46601  -3.5371e-05
4250  -0.00330983    0.703197     2.19112  -3.48572e-05
4260  -0.00649614    0.702254     2.74337  6.22595e-05
4270  -0.00455501    0.702829     2.61582  0.000295793
4280   -0.012412    0.700504     3.04139  0.000455572
4290  -0.0136665    0.700133     2.91466  -7.10745e-05
4300  -0.0109905    0.700925     2.91363  -0.000231126
4310  -0.00904394    0.701501     1.17262  -2.22038e-05
4320  -0.0105464    0.701056     2.14896  -0.00025751
4330  -0.00389373    0.703024     2.70026  -0.000369195
4340  -0.00316254    0.703241     1.93546  3.84236e-05
4350  -0.00466221    0.702797     1.68127  0.000125395
4360  -0.00567045    0.702499     1.17133  0.000350033
4370  -0.0116629    0.700726     1.12938  0.000413189
4380  -0.0139342    0.700054     2.31934  0.000314995
4390  -0.0179628    0.698862     1.21544  6.56243e-05
4400  -0.0152467    0.699666     1.55346  -0.000221948
4410  -0.0135238    0.700175    0.406992  -0.000323387
4420  -0.00877899    0.701579       1.171  0.000166579
4430  -0.0168554     0.69919     1.51118  0.000418196
4440  -0.0171429    0.699105     1.42628  1.62097e-05
4450  -0.0171796    0.699094     1.38383  -0.000110213
4460  -0.0149386    0.699757    0.789162  -0.000148456
4470  -0.0142105    0.699972    0.959003  -0.000263434
4480  -0.00966996    0.701316  -0.0617362  -3.50184e-05
4490  -0.0135101     0.70018    0.788872  0.000155236
4500  -0.0127747    0.700397     1.76509  0.000475388
4510  -0.0230179    0.697367     1.29847  9.24321e-05
4520  -0.0146233     0.69985    0.660363  -0.00012338
4530  -0.0205503    0.698097    0.788333  9.3097e-05
4540  -0.0164853    0.699299    0.745594  -0.000535895
4550  -0.00983236    0.701267     1.33902  -0.000344301
4560  -0.00959924    0.701336    0.489237  0.000196027
4570  -0.0137529    0.700108    0.362552  -0.000114092
4580  -0.0073174    0.702011     1.08349  -0.000230118
4590  -0.00915053    0.701469     1.04025  0.000638018
4600  -0.0200778    0.698237      0.8729  0.000301394
4610  -0.0151784    0.699686    0.235121  0.000343092
4620  -0.0269396    0.696207     1.93459  3.39504e-06
4630  -0.0152463    0.699666     1.63583  -0.000269046
4640  -0.0215587    0.697799     1.76417  0.000213042
4650  -0.0195072    0.698405     1.29599  -0.000481201
4660  -0.0119347    0.700646     1.25262  5.68294e-05
4670  -0.0206437    0.698069     1.38055  0.000991144
4680  -0.0317576    0.694781     1.55085  -6.1514e-05
4690  -0.0194135    0.698433    0.700158  -6.68932e-06
4700  -0.0316238    0.694821     1.25316  0.000560768
4710  -0.0306288    0.695115     1.88974  -0.000126191
4720     -0.0291    0.695568    0.317946  -4.67853e-05
4730  -0.0296931    0.695392    0.742732  8.6055e-05
4740  -0.0308211    0.695059    0.615093  0.000259938
4750  -0.0348919    0.693854     1.29528  8.67301e-05
4760  -0.0325557    0.694545    0.614181  -0.000461919
4770  -0.0256535    0.696587     1.08112  6.82026e-06
4780  -0.0326921    0.694505     2.18672  0.000261187
4790  -0.0308773    0.695042     1.25121  6.08088e-05
4800  -0.0339082    0.694145     1.63338  0.000114555
4810  -0.0331684    0.694364      2.3134  4.77321e-05
4820  -0.0348629    0.693863     1.54877  -7.43587e-05
4830  -0.0316812    0.694804     2.10012  -0.000576817
4840  -0.0233265    0.697276     2.65122  -7.49129e-05
4850  -0.0301829    0.695247     2.69495  0.000100562
4860  -0.0253378    0.696681     3.11849  -0.000321482
4870  -0.0237533    0.697149     3.11833  -0.000199825
4880  -0.0213413    0.697863     2.60835  0.000224779
4890  -0.0282489    0.695819     2.01514  0.000485845
4900  -0.0310582    0.694988     2.86471  0.000254015
4910  -0.0333292    0.694317     3.54353  0.000420685
4920  -0.0394719    0.692499     4.01105  -4.81553e-05
4930  -0.0323661    0.694601     4.05276  -0.00031024
4940  -0.0332671    0.694335     3.16036  -0.00022894
4950  -0.0277873    0.695956     4.09359  9.0659e-05
4960  -0.0350803    0.693799     4.05184  0.00081439
4970  -0.0440751    0.691138     3.45809  -0.00020188
4980  -0.0310427    0.694993     2.56441  -1.85367e-05
4990  -0.0437043    0.691247     4.17927  0.000164806
