Time   Number   
ps   
0          27          19
10          24          24
20          27          16
30          26          17
40          25          20
50          25          22
60          26          21
70          25          17
80          23          29
90          25          24
100          23          21
110          25          21
120          23          21
130          26          20
140          20          26
150          21          19
160          25          15
170          24          29
180          26          21
190          25          23
200          25          19
210          26          24
220          24          25
230          26          22
240          28          25
250          23          25
260          25          25
270          25          27
280          27          22
290          24          24
300          28          18
310          29          21
320          21          28
330          27          21
340          24          27
350          30          18
360          27          25
370          27          20
380          26          24
390          28          23
400          24          30
410          25          27
420          26          20
430          22          27
440          20          26
450          28          21
460          27          16
470          26          22
480          28          20
490          23          22
500          26          22
510          25          17
520          26          20
530          26          20
540          24          24
550          20          17
560          26          20
570          24          26
580          26          17
590          24          21
600          24          21
610          23          24
620          27          21
630          24          20
640          23          20
650          21          20
660          21          24
670          25          25
680          18          26
690          24          20
700          20          21
710          21          25
720          21          25
730          25          21
740          27          22
750          23          22
760          21          25
770          26          18
780          19          30
790          22          21
800          24          25
810          23          25
820          22          24
830          27          19
840          25          25
850          22          29
860          23          28
870          26          21
880          25          22
890          22          25
900          22          26
910          25          21
920          23          26
930          23          24
940          25          20
950          26          26
960          25          26
970          22          28
980          21          31
990          24          33
1000          21          32
1010          22          31
1020          24          27
1030          26          20
1040          23          25
1050          23          24
1060          23          28
1070          24          30
1080          21          33
1090          24          25
1100          26          19
1110          19          34
1120          22          27
1130          24          28
1140          26          23
1150          22          27
1160          21          29
1170          25          27
1180          21          31
1190          24          27
1200          20          24
1210          23          27
1220          21          32
1230          22          27
1240          25          24
1250          22          29
1260          22          23
1270          27          25
1280          22          25
1290          24          28
1300          25          29
1310          26          29
1320          26          23
1330          24          29
1340          24          27
1350          20          25
1360          25          21
1370          22          24
1380          23          32
1390          23          25
1400          28          28
1410          21          30
1420          25          31
1430          19          23
1440          24          27
1450          24          28
1460          22          29
1470          25          29
1480          23          30
1490          22          26
1500          20          35
1510          26          26
1520          24          24
1530          26          25
1540          27          30
1550          23          23
1560          25          20
1570          23          30
1580          26          24
1590          24          23
1600          22          26
1610          21          25
1620          26          26
1630          20          33
1640          21          29
1650          22          28
1660          24          27
1670          24          26
1680          20          30
1690          22          24
1700          24          25
1710          20          27
1720          25          26
1730          26          29
1740          23          29
1750          24          29
1760          24          27
1770          23          30
1780          21          25
1790          21          26
1800          25          22
1810          23          23
1820          24          22
1830          27          22
1840          27          21
1850          22          31
1860          26          30
1870          22          27
1880          27          22
1890          24          29
1900          25          23
1910          24          24
1920          24          27
1930          22          29
1940          25          28
1950          24          27
1960          23          29
1970          23          24
1980          25          20
1990          26          22
2000          25          27
2010          25          20
2020          25          20
2030          27          24
2040          21          26
2050          24          22
2060          21          27
2070          24          24
2080          23          28
2090          28          24
2100          24          25
2110          22          22
2120          22          25
2130          23          26
2140          27          25
2150          28          20
2160          22          27
2170          23          26
2180          25          24
2190          24          25
2200          23          31
2210          24          25
2220          22          27
2230          27          21
2240          23          25
2250          22          24
2260          21          22
2270          21          26
2280          22          27
2290          23          27
2300          26          29
2310          24          21
2320          29          23
2330          25          18
2340          23          28
2350          24          23
2360          26          20
2370          24          22
2380          24          20
2390          23          21
2400          26          23
2410          23          26
2420          26          26
2430          25          22
2440          25          25
2450          24          27
2460          26          23
2470          25          25
2480          23          21
2490          24          29
2500          22          29
2510          24          28
2520          23          26
2530          20          30
2540          24          33
2550          24          26
2560          26          27
2570          22          26
2580          29          26
2590          23          23
2600          23          25
2610          25          23
2620          26          28
2630          23          27
2640          22          30
2650          23          30
2660          24          27
2670          24          27
2680          23          24
2690          27          22
2700          27          29
2710          24          25
2720          24          28
2730          24          30
2740          27          28
2750          25          32
2760          24          27
2770          24          22
2780          24          25
2790          21          30
2800          24          26
2810          23          27
2820          21          26
2830          24          31
2840          27          28
2850          25          27
2860          24          25
2870          24          25
2880          26          26
2890          24          23
2900          26          27
2910          22          28
2920          24          32
2930          24          22
2940          22          25
2950          29          22
2960          26          24
2970          27          28
2980          23          27
2990          25          25
3000          23          28
3010          26          24
3020          28          20
3030          23          26
3040          23          27
3050          24          29
3060          27          26
3070          28          27
3080          25          23
3090          24          21
3100          22          30
3110          22          30
3120          25          20
3130          26          22
3140          23          23
3150          22          27
3160          25          26
3170          24          23
3180          26          22
3190          23          23
3200          26          26
3210          21          29
3220          23          21
3230          23          28
3240          20          29
3250          26          20
3260          23          23
3270          22          26
3280          23          25
3290          19          29
3300          26          20
3310          25          21
3320          24          29
3330          24          24
3340          24          33
3350          27          22
3360          22          31
3370          26          19
3380          24          25
3390          25          20
3400          25          23
3410          22          21
3420          24          27
3430          27          27
3440          24          27
3450          22          27
3460          23          24
3470          23          26
3480          26          24
3490          22          28
3500          26          25
3510          21          30
3520          24          25
3530          28          22
3540          26          25
3550          23          30
3560          26          23
3570          26          25
3580          23          25
3590          28          26
3600          21          29
3610          28          20
3620          25          25
3630          23          22
3640          24          21
3650          24          25
3660          22          22
3670          23          21
3680          26          16
3690          21          24
3700          24          19
3710          23          20
3720          21          23
3730          25          20
3740          20          24
3750          21          20
3760          28          20
3770          21          19
3780          26          20
3790          20          26
3800          25          24
3810          26          20
3820          25          21
3830          26          18
3840          27          19
3850          19          22
3860          25          23
3870          24          21
3880          22          23
3890          23          21
3900          25          16
3910          26          25
3920          22          25
3930          21          21
3940          25          21
3950          24          20
3960          23          23
3970          19          25
3980          22          27
3990          27          20
4000          23          22
4010          24          21
4020          23          22
4030          24          16
4040          26          26
4050          22          30
4060          22          25
4070          23          25
4080          24          25
4090          22          23
4100          22          19
4110          21          26
4120          23          22
4130          23          25
4140          26          18
4150          25          24
4160          20          27
4170          24          26
4180          24          26
4190          24          25
4200          22          27
4210          24          26
4220          24          24
4230          21          23
4240          24          28
4250          23          29
4260          26          22
4270          20          26
4280          21          28
4290          25          26
4300          26          20
4310          23          25
4320          23          24
4330          26          23
4340          26          23
4350          25          23
4360          27          24
4370          23          23
4380          23          26
4390          21          23
4400          22          24
4410          21          29
4420          23          23
4430          22          24
4440          24          29
4450          21          28
4460          28          24
4470          22          26
4480          25          23
4490          23          25
4500          25          27
4510          30          23
4520          19          26
4530          27          30
4540          21          27
4550          26          28
4560          25          20
4570          27          22
4580          23          21
4590          23          29
4600          26          24
4610          24          30
4620          24          30
4630          27          25
4640          22          30
4650          19          27
4660          26          29
4670          20          37
4680          24          29
4690          26          23
4700          24          25
4710          24          25
4720          22          27
4730          24          23
4740          24          22
4750          25          29
4760          21          33
4770          24          27
4780          23          27
4790          23          29
4800          22          25
4810          25          24
4820          25          23
4830          24          23
4840          26          29
4850          25          27
4860          21          31
4870          29          24
4880          28          23
4890          24          27
4900          28          25
4910          24          28
4920          23          30
4930          22          30
4940          25          28
4950          27          22
4960          28          24
4970          28          24
4980          26          27
4990          22          26
5000          27          25
5010          25          26
5020          26          25
5030          28          23
5040          23          25
5050          27          24
5060          28          25
5070          23          27
5080          24          28
5090          24          35
5100          26          25
5110          24          28
5120          23          30
5130          25          31
5140          26          26
5150          28          25
5160          25          23
5170          24          25
5180          24          27
5190          28          29
5200          24          27
5210          24          24
5220          22          22
5230          23          28
5240          22          21
5250          21          25
5260          21          23
5270          22          23
5280          23          24
5290          25          21
5300          25          20
5310          24          27
5320          26          27
5330          25          27
5340          24          27
5350          25          25
5360          23          22
5370          27          26
5380          29          21
5390          24          21
5400          23          26
5410          23          30
5420          23          27
5430          23          34
5440          26          27
5450          25          23
5460          27          28
5470          23          29
5480          24          26
5490          22          25
5500          24          22
5510          25          31
5520          24          28
5530          27          23
5540          25          20
5550          25          28
5560          25          32
5570          25          28
5580          25          30
5590          24          27
5600          25          24
5610          20          34
5620          28          23
5630          26          22
5640          25          24
5650          28          25
5660          27          18
5670          22          24
5680          21          31
5690          20          30
5700          26          25
5710          22          27
5720          26          29
5730          25          25
5740          24          24
5750          27          24
5760          23          28
5770          27          22
5780          29          21
5790          26          20
5800          23          22
5810          25          21
5820          28          25
5830          25          25
5840          29          17
5850          26          25
5860          26          24
5870          25          27
5880          25          22
5890          23          29
5900          23          25
5910          25          24
5920          29          22
5930          25          25
5940          24          28
5950          19          34
5960          25          24
5970          28          24
5980          27          27
5990          23          25
6000          23          28
6010          22          30
6020          21          25
6030          26          23
6040          23          21
6050          24          23
6060          20          24
6070          25          20
6080          23          21
6090          24          24
6100          24          25
6110          23          24
6120          21          26
6130          20          22
6140          23          19
6150          23          23
6160          23          24
6170          24          26
6180          25          22
6190          25          21
6200          18          27
6210          23          20
6220          22          20
6230          24          21
6240          24          22
6250          24          25
6260          21          22
6270          22          22
6280          21          26
6290          24          21
6300          25          22
6310          23          20
6320          23          22
6330          23          24
6340          27          23
6350          24          16
6360          24          25
6370          23          22
6380          27          24
6390          24          26
6400          22          26
6410          21          24
6420          25          20
6430          23          25
6440          20          25
6450          22          29
6460          24          26
6470          16          33
6480          24          27
6490          22          26
6500          24          25
6510          19          31
6520          24          22
6530          27          21
6540          23          22
6550          25          26
6560          26          21
6570          23          23
6580          28          16
6590          22          27
6600          24          22
6610          28          21
6620          26          21
6630          27          24
6640          23          22
6650          22          25
6660          26          18
6670          25          22
6680          21          22
6690          26          20
6700          28          19
6710          26          20
6720          22          22
6730          24          23
6740          23          24
6750          21          22
6760          24          21
6770          24          18
6780          25          26
6790          23          29
6800          24          20
6810          26          25
6820          20          24
6830          23          24
6840          25          22
6850          26          22
6860          23          22
6870          24          19
6880          25          24
6890          23          16
6900          25          17
6910          23          22
6920          23          25
6930          21          31
6940          22          24
6950          22          27
6960          20          22
6970          26          25
6980          23          20
6990          20          28
7000          26          25
7010          21          27
7020          25          20
7030          22          28
7040          25          23
7050          28          21
7060          28          24
7070          23          22
7080          23          22
7090          25          18
7100          25          23
7110          26          22
7120          24          24
7130          22          29
7140          23          27
7150          22          27
7160          25          26
7170          23          28
7180          22          27
7190          27          24
7200          23          26
7210          21          23
7220          29          17
7230          24          22
7240          27          25
7250          21          26
7260          22          24
7270          24          21
7280          22          25
7290          27          23
7300          21          21
7310          21          28
7320          21          25
7330          22          23
7340          20          23
7350          25          29
7360          24          22
7370          21          22
7380          23          26
7390          25          20
7400          23          29
7410          20          27
7420          22          27
7430          25          27
7440          24          25
7450          24          25
7460          24          22
7470          25          16
7480          22          22
7490          21          29
7500          21          28
7510          22          29
7520          24          24
7530          18          30
7540          25          20
7550          19          24
7560          23          23
7570          20          27
7580          19          28
7590          20          26
7600          21          25
7610          21          24
7620          18          34
7630          19          22
7640          21          29
7650          23          22
7660          24          26
7670          16          29
7680          23          26
7690          22          29
7700          23          26
7710          24          25
7720          25          24
7730          28          25
7740          24          23
7750          21          25
7760          21          31
7770          22          25
7780          21          24
7790          23          24
7800          22          23
7810          21          24
7820          22          21
7830          21          24
7840          23          20
7850          22          26
7860          22          26
7870          22          27
7880          24          29
7890          21          23
7900          23          28
7910          22          24
7920          21          25
7930          27          17
7940          21          31
7950          21          25
7960          22          23
7970          23          20
7980          26          19
7990          25          24
8000          22          20
8010          24          21
8020          22          26
8030          19          27
8040          23          26
8050          27          26
8060          21          30
8070          26          26
8080          24          31
8090          24          31
8100          23          24
8110          24          26
8120          26          27
8130          25          28
8140          26          25
8150          26          28
8160          27          29
8170          24          34
8180          25          30
8190          26          31
8200          27          29
8210          27          27
8220          27          31
8230          28          24
8240          25          21
8250          26          23
8260          22          28
8270          28          25
8280          25          25
8290          27          26
8300          23          28
8310          29          22
8320          28          25
8330          25          33
8340          24          28
8350          26          26
8360          25          25
8370          22          25
8380          26          26
8390          27          22
8400          22          32
8410          26          23
8420          27          27
8430          26          29
8440          22          37
8450          27          26
8460          23          30
8470          26          31
8480          26          20
8490          28          29
8500          25          27
8510          26          29
8520          27          22
8530          25          23
8540          26          27
8550          28          25
8560          24          29
8570          25          22
8580          25          30
8590          22          32
8600          25          23
8610          26          25
8620          23          22
8630          23          30
8640          25          25
8650          22          25
8660          24          27
8670          26          27
8680          28          21
8690          25          28
8700          29          25
8710          29          23
8720          24          36
8730          27          28
8740          25          31
8750          25          24
8760          25          26
8770          24          26
8780          21          24
8790          26          27
8800          24          28
8810          30          25
8820          28          21
8830          25          27
8840          26          18
8850          23          20
8860          22          27
8870          20          24
8880          26          25
8890          24          23
8900          24          18
8910          25          23
8920          22          32
8930          27          23
8940          24          31
8950          24          25
8960          22          36
8970          20          27
8980          26          24
8990          25          24
9000          30          18
9010          28          21
9020          28          25
9030          24          24
9040          25          29
9050          24          23
9060          25          22
9070          29          18
9080          27          20
9090          26          26
9100          24          28
9110          23          22
9120          26          25
9130          27          23
9140          26          23
9150          22          34
9160          27          24
9170          23          26
9180          23          32
9190          24          24
9200          25          25
9210          28          26
9220          27          19
9230          27          22
9240          25          26
9250          26          22
9260          27          24
9270          24          28
9280          27          21
9290          26          24
9300          24          22
9310          27          24
9320          28          23
9330          25          24
9340          25          33
9350          20          27
9360          26          29
9370          24          29
9380          29          24
9390          22          30
9400          26          26
9410          26          29
9420          27          24
9430          25          24
9440          28          25
9450          25          24
9460          26          20
9470          27          24
9480          28          26
9490          30          26
9500          26          28
9510          26          24
9520          24          28
9530          26          27
9540          29          21
9550          27          25
9560          25          23
9570          30          19
9580          25          22
9590          28          23
9600          25          22
9610          26          21
9620          23          24
9630          25          20
9640          24          23
9650          22          27
9660          22          28
9670          24          28
9680          26          26
9690          23          20
9700          23          25
9710          25          24
9720          24          23
9730          19          25
9740          24          23
9750          25          23
9760          25          22
9770          24          26
9780          22          22
9790          23          24
9800          24          23
9810          25          27
9820          24          22
9830          26          22
9840          27          22
9850          26          22
9860          27          18
9870          23          23
9880          24          23
9890          23          22
9900          24          24
9910          24          24
9920          25          29
9930          28          20
9940          26          25
9950          24          26
9960          27          23
9970          25          26
9980          29          15
9990          23          26
10000          20          24
