Time   C(t)   
ps   
0           1           1  4.64578e-10   0.0221795
10    0.779174    0.802359    -1.39278   0.0128051
20    0.743897    0.770787     1.13502  0.00343079
30    0.710558    0.740948    -1.77638  0.00304966
40    0.682904    0.716197    -1.96738  0.00255311
50    0.659496    0.695247    -2.28491  0.00230149
60    0.636874       0.675  -0.00756857  0.00229575
70    0.613581    0.654153    -0.76699    0.002022
80    0.596434    0.638806     0.68621  0.00159103
90    0.581761    0.625673     1.50744  0.00160136
100    0.564407    0.610142   -0.579884  0.00156258
110    0.550509    0.597703    -1.59409  0.00136328
120    0.537142    0.585739   -0.328802  0.00140803
130    0.522349    0.572499    0.365964  0.00140731
140    0.508996    0.560548    0.365285   0.0012631
150    0.497086    0.549889    -1.72229  0.00109035
160    0.487189     0.54103     1.31305  0.000952223
170    0.478042    0.532844   -0.460212  0.00108075
180    0.465574    0.521685    0.679476  0.00106869
190    0.456668    0.513714   0.0455332  0.000873817
200    0.448097    0.506043   -0.144415  0.000833324
210    0.440002    0.498798    0.360466  0.000866821
220    0.430761    0.490527  -0.0196158  0.000932109
230     0.42136    0.482113   -0.714506  0.000934027
240     0.41208    0.473808    0.233504  0.000847453
250    0.404411    0.466943   -0.083158  0.000650822
260    0.399064    0.462158    0.611423  0.000709043
270     0.39023    0.454252   -0.211108  0.000823946
280    0.382585    0.447409    0.484462  0.000637309
290    0.377484    0.442844     1.24333  0.000685029
300    0.368884    0.435147     1.24407  0.000736117
310    0.362761    0.429667     1.55919  0.000637916
320    0.356126    0.423729     1.24234  0.000567828
330    0.351405    0.419503     1.05134  0.000590543
340    0.344315    0.413158   0.0392314  0.000563037
350    0.340144    0.409424    0.608149  0.000388926
360    0.336537    0.406196    0.228067  0.000482944
370    0.330485     0.40078    -1.10009  0.000433569
380    0.327865    0.398435   -0.594341  0.000305367
390    0.324378    0.395313    -1.48103  0.000471359
400    0.318438    0.389998     1.11309  0.000475815
410    0.314861    0.386796      1.5548  0.000469717
420    0.309044     0.38159     1.74537  0.000459741
430    0.305667    0.378567    0.669344  0.000403078
440    0.300982    0.374374    0.732022  0.000544819
450     0.29477    0.368815     0.22504  0.000592908
460    0.289124    0.363761    0.225411  0.000518124
470    0.284408     0.35954    0.224608  0.000570008
480    0.277724    0.353558   -0.723403  0.000531186
490    0.273784    0.350032   -0.407729  0.000321735
500    0.271289    0.347799    0.540344  0.000395212
510     0.26588    0.342957   0.0985114  0.000374062
520    0.263808    0.341103    0.413629  0.000385974
530     0.25816    0.336048     0.73023  0.000477794
540    0.254252    0.332551  -0.0300564  0.000362022
550     0.25092    0.329568   0.0324975  0.000443263
560    0.245387    0.324616    -1.16968  0.000488006
570     0.24116    0.320833    -1.36013  0.000375525
580    0.237876    0.317894    0.411343  0.000325028
590    0.234659    0.315015   -0.854319  0.000292683
600    0.232023    0.312655   -0.412547  0.000230841
610    0.230042    0.310883   -0.223465  0.000345426
620    0.225114    0.306472    -1.42447  0.000375486
630    0.222533    0.304161   -0.982516  0.000357982
640    0.217954    0.300064    -1.74107  0.00027741
650    0.216984    0.299196    -1.36111  0.000156264
660    0.214829    0.297267    -1.04532  0.00019723
670     0.21304    0.295665    -1.74138  0.000219888
680    0.210431    0.293331  -0.0339489  0.000186963
690    0.209301    0.292319   -0.476214  0.000102081
700     0.20839    0.291504     -1.2993  0.000135744
710    0.206586    0.289889   -0.856666  0.000277314
720    0.202843     0.28654    -2.31184  0.000184735
730    0.202891    0.286582    -2.12196  9.21555e-05
740       0.201     0.28489     -3.0717  0.000178063
750     0.19933    0.283395     -2.8187  0.000111225
760    0.198776    0.282899    -3.70478  0.000156408
770    0.196202    0.280595    -3.51489  0.000190331
780    0.194969    0.279492    -1.42799  0.000273262
790    0.190736    0.275704    -2.94542  0.000191146
800    0.191146    0.276071    -3.00982  0.000146744
810    0.187801    0.273077    -3.76727  0.000308545
820    0.184975    0.270548    -1.80727  0.000109749
830    0.185606    0.271112    -2.25046  8.75697e-05
840    0.183224     0.26898    -2.12387  0.000170588
850    0.182195    0.268059   -0.668819  0.000235227
860     0.17852    0.264769    -1.80721  0.000235605
870    0.177483    0.263841     -3.5165  0.000198422
880    0.174551    0.261218    -2.18791  0.000149503
890    0.174493    0.261165    -1.36624  8.92997e-05
900    0.172765    0.259619     -2.1884  0.000256469
910    0.169363    0.256574   -0.228284  0.000279745
920     0.16717    0.254612    -2.31574  0.000227156
930     0.16482    0.252508     -2.1261  0.000231467
940    0.162541    0.250468    -1.49277  0.000113744
950    0.162545    0.250472    0.277647  0.000186665
960    0.158808    0.247127    -1.36754  0.000225101
970    0.158043    0.246443   -0.228098  0.000206633
980    0.154675    0.243428   -0.544699  0.00016098
990    0.154824    0.243561   -0.798499  5.79812e-05
1000    0.153515     0.24239   -0.482639  0.000150166
1010     0.15182    0.240873    0.719233  0.000408002
1020    0.145355    0.235087     1.10024  0.000497148
1030    0.141877    0.231974     2.23906  0.000201808
1040    0.141319    0.231475     1.54176  0.000102156
1050    0.139834    0.230146     2.04813  -9.62615e-06
1060    0.141512    0.231647   -0.546614  8.71532e-05
1070    0.138091    0.228586    0.719541  0.000272795
1080    0.136056    0.226764    0.592827  0.000211512
1090    0.133861      0.2248    0.592765  5.68487e-05
1100    0.134919    0.225746   -0.166533  8.04558e-05
1110    0.132252    0.223359   -0.735265  0.000220352
1120    0.130512    0.221802   -0.925398  0.000205327
1130    0.128145    0.219684   0.0864635  0.000170697
1140    0.127098    0.218747   0.0233532  8.92684e-05
1150     0.12636    0.218086   0.0865873  5.82539e-05
1160    0.125933    0.217704   -0.419776  0.000109216
1170    0.124175    0.216131     -1.3684  9.76425e-05
1180     0.12398    0.215956    -1.17945  5.09359e-05
1190    0.123157    0.215219   -0.230508  7.06319e-05
1200    0.122567    0.214692   -0.166656  9.82996e-05
1210    0.121191     0.21346   -0.230261  0.000224271
1220    0.118082    0.210677     1.35132  0.000118417
1230    0.118822     0.21134      1.8575  4.64916e-06
1240    0.117989    0.210594     1.92018  5.97965e-05
1250    0.117626     0.21027     1.22405  5.60049e-05
1260    0.116869    0.209592     1.09752  0.000206346
1270      0.1135    0.206576     1.60321  0.000357081
1280    0.109727      0.2032     1.91968  0.000175593
1290    0.109988    0.203433     2.48848  1.35791e-05
1300    0.109455    0.202957     1.85633  8.50573e-05
1310    0.108287    0.201911     2.55159  8.9189e-05
1320    0.107672     0.20136     2.48891  7.74831e-05
1330    0.106737    0.200524     3.69023  0.000137428
1340    0.104923      0.1989     2.23591  6.58717e-05
1350    0.105419    0.199344     2.42543   1.822e-05
1360    0.104559    0.198574     2.61482  6.61783e-05
1370    0.104096     0.19816     1.79247  2.63125e-05
1380    0.104032    0.198103     2.23474  0.00012661
1390    0.101564    0.195894     1.09629  0.000190985
1400    0.100213    0.194684     1.09629  0.000111134
1410    0.099341    0.193904     2.29909  -9.26442e-06
1420    0.100398     0.19485     2.99484  2.30506e-05
1430     0.09888    0.193492     1.98255  0.000204397
1440   0.0963101    0.191192     2.04634  9.17815e-05
1450   0.0970444    0.191849     1.41307  -4.92632e-05
1460   0.0972954    0.192073     1.34904  3.55709e-05
1470   0.0963329    0.191212     1.34897  8.41882e-05
1480   0.0956116    0.190566     1.47476  6.41178e-05
1490   0.0950506    0.190064    0.969573  2.77404e-05
1500   0.0950568     0.19007     1.72782  9.28786e-05
1510    0.093193    0.188402     1.47501  9.29914e-05
1520    0.093197    0.188405     1.28463  3.67127e-06
1530   0.0931196    0.188336     1.66428  0.000105666
1540   0.0910836    0.186514      1.3478  0.000138482
1550   0.0903499    0.185857     1.91629  0.000126617
1560   0.0885513    0.184247     1.47365  0.000143231
1570   0.0874853    0.183293      1.8528  0.000184607
1580   0.0848592    0.180943      2.5498  9.46674e-05
1590    0.085592    0.181599      1.8533  -7.62753e-06
1600   0.0850117    0.181079     3.56092  -2.00715e-05
1610   0.0859934    0.181958     2.61186  -3.65026e-05
1620   0.0857418    0.181733     3.18096  2.10729e-05
1630    0.085572    0.181581      3.2437  9.13132e-05
1640   0.0839155    0.180098     2.54807  5.83697e-05
1650   0.0844046    0.180536     3.24357  3.79495e-05
1660   0.0831565    0.179419     2.86411  9.59419e-05
1670   0.0824857    0.178819     3.62353  5.05771e-05
1680    0.082145    0.178514     3.68689  4.24113e-05
1690   0.0816375    0.178059     3.05437  -7.8094e-05
1700   0.0837069    0.179912     3.43334  -1.98316e-05
1710   0.0820341    0.178414     3.11766  7.57653e-05
1720   0.0821915    0.178555      2.4844  -1.99325e-05
1730   0.0824328    0.178771     4.12928  3.85221e-05
1740   0.0814211    0.177866     3.49688  4.69133e-05
1750   0.0814945    0.177931     3.56011  1.77708e-05
1760   0.0810657    0.177548     4.31892  0.000118429
1770   0.0791259    0.175812     3.87696  7.66404e-05
1780   0.0795329    0.176176     3.49639  -1.55214e-05
1790   0.0794364    0.176089     2.80112  -4.08389e-05
1800   0.0803497    0.176907     2.10432  -6.61638e-05
1810   0.0807596    0.177274     4.31818  -5.79227e-05
1820   0.0815081    0.177944     3.30631  4.33505e-05
1830   0.0798926    0.176498     3.62279  -1.5904e-05
1840   0.0818262    0.178228     4.69789  -9.19595e-05
1850   0.0817318    0.178144     4.63453  3.9139e-05
1860   0.0810434    0.177528     4.44458  -1.59875e-05
1870   0.0820516     0.17843     3.30551  9.57735e-06
1880   0.0808519    0.177356     2.41993  0.000149903
1890   0.0790535    0.175747     2.23072  0.000128933
1900   0.0782732    0.175048     2.73696  0.000112251
1910   0.0768085    0.173737     3.36942  0.000108211
1920    0.076109    0.173111     4.19189  -2.66954e-06
1930   0.0768619    0.173785     2.98903  0.000125883
1940   0.0735913    0.170858     3.49527  0.000318885
1950   0.0704842    0.168077     3.11637  0.000109333
1960   0.0714047    0.168901     3.55919  -0.000100754
1970   0.0724993    0.169881     3.81138  -1.92259e-05
1980   0.0717892    0.169245      3.6218  0.00010988
1990   0.0703017    0.167914     2.67311  9.28488e-05
2000   0.0699322    0.167583     2.86189  -4.07595e-05
2010   0.0711168    0.168643     2.98848  2.84392e-05
2020   0.0693634    0.167074      3.2416  0.000158243
2030    0.067952    0.165811     2.60932  7.62816e-05
2040   0.0678378    0.165709     2.73567  -5.80344e-05
2050   0.0691127     0.16685     2.41937  2.88416e-05
2060    0.067261    0.165192     1.21707  8.09494e-05
2070   0.0674937    0.165401     1.97606  7.69276e-05
2080   0.0657224    0.163815     2.16638  9.44477e-05
2090   0.0656047     0.16371     1.91295  0.000195282
2100   0.0618168     0.16032     1.65995  0.00025241
2110   0.0605565    0.159192      3.1147  0.000218168
2120   0.0574534    0.156415      1.9132  0.000130896
2130   0.0579386    0.156849     1.40646  -1.78447e-05
2140   0.0578103    0.156734     2.10222  8.45362e-06
2150   0.0577695    0.156697     1.46858  0.000105333
2160   0.0557036    0.154848     1.78525  0.000153959
2170   0.0546904    0.153942     1.91233  4.84925e-05
2180   0.0547338     0.15398     3.05115  7.48783e-08
2190   0.0546889     0.15394     2.41771  7.52928e-05
2200   0.0532279    0.152633     2.03843  8.86871e-05
2210   0.0529151    0.152353     2.73412  0.000151097
2220    0.050206    0.149928     2.79773  0.000200193
2230   0.0489113    0.148769     2.10209  4.51336e-05
2240   0.0493033     0.14912     2.41783  4.98103e-05
2250   0.0479151    0.147878     3.68318  2.75204e-05
2260   0.0487529    0.148628     2.54374  5.45312e-05
2270   0.0468244    0.146902     1.97476  8.46572e-07
2280    0.048736    0.148612     2.16366  5.92878e-05
2290   0.0456387     0.14584     2.16434  9.94608e-05
2300   0.0467468    0.146832     2.22696  -7.72271e-06
2310   0.0457931    0.145978     2.48007  0.00011346
2320   0.0444776    0.144801     1.21441  0.000163231
2330   0.0425285    0.143057     1.59449  0.000109547
2340   0.0422866     0.14284      1.9739  3.77612e-05
2350   0.0417733    0.142381     1.02477  9.65696e-05
2360   0.0403552    0.141112      1.2141  0.000105808
2370   0.0396571    0.140487     2.10036  0.000133314
2380    0.037689    0.138725     1.84755  9.27595e-05
2390   0.0378019    0.138826     2.22702  2.3108e-06
2400   0.0376428    0.138684     1.53095  -3.86272e-05
2410   0.0385745    0.139518     2.35274  4.33071e-05
2420   0.0367766    0.137909     1.78383  3.41218e-05
2430    0.037892    0.138907     2.66971  -0.000116256
2440   0.0391017     0.13999     3.04881  2.51578e-05
2450   0.0373889    0.138457     2.35305  -1.61655e-05
2460    0.039425    0.140279     2.16323  -0.000125965
2470   0.0399082    0.140711     2.28976  2.9644e-05
2480   0.0388322    0.139748     2.79612  1.12316e-05
2490   0.0396835     0.14051     2.92228  1.13921e-05
2500   0.0386043    0.139544     3.36565  5.73773e-05
2510    0.038536    0.139483     2.29007  -6.99926e-06
2520   0.0387443     0.13967     3.49132  -2.0864e-05
2530   0.0389533    0.139857     2.35287  3.45996e-05
2540   0.0380523     0.13905      2.0367  5.31519e-05
2550   0.0378902    0.138905      2.1631  -5.33549e-05
2560   0.0391194    0.140005     1.53046  -9.98579e-05
2570   0.0398874    0.140693      2.2259  -3.50358e-05
2580   0.0398201    0.140633     2.41579  3.93355e-05
2590   0.0391007    0.139989     3.23863  2.08449e-06
2600   0.0397784    0.140595     2.92222  -8.65493e-05
2610   0.0408317    0.141538     3.36442  -4.93441e-05
2620   0.0407653    0.141479      3.4907  2.06882e-05
2630   0.0404179    0.141168     4.44038  -2.14793e-05
2640   0.0411949    0.141863     3.68077  -3.08484e-05
2650   0.0410349     0.14172     3.49076  -1.21905e-05
2660   0.0414387    0.142081     3.93389  -7.81065e-05
2670    0.042597    0.143118     4.69257  3.96101e-05
2680   0.0406465    0.141372     3.80736  0.00011505
2690    0.040296    0.141059     3.61748  6.34676e-05
2700   0.0393772    0.140236     3.49082  2.05282e-06
2710   0.0402549    0.141022     3.11074  3.06288e-05
2720   0.0387646    0.139688     2.47797  0.000153987
2730   0.0371752    0.138265     3.17416  4.03037e-05
2740   0.0379585    0.138966     2.92148  -3.55901e-05
2750    0.037887    0.138902     2.79476  -4.05151e-05
2760   0.0387688    0.139692     2.28803  -3.57883e-05
2770   0.0386028    0.139543     2.79396   6.443e-05
2780   0.0374802    0.138538     2.66718  0.000126775
2790   0.0360673    0.137274     1.52941  0.000141486
2800   0.0346505    0.136006     2.03509  0.000113078
2810   0.0338057     0.13525     2.22461  0.000127855
2820   0.0320934    0.133717      2.2879  0.000185916
2830   0.0300874    0.131922     2.09802  0.000162312
2840   0.0288472    0.130812     1.84527  0.000109721
2850    0.027893    0.129958     2.16144  0.000139052
2860   0.0260661    0.128323     2.47816  1.83616e-05
2870   0.0275258    0.129629     1.90893  -5.59418e-06
2880    0.026178    0.128423      2.0354  0.000130114
2890   0.0249235      0.1273     2.79445  6.72945e-05
2900   0.0248321    0.127218      1.9085  5.29604e-05
2910   0.0238643    0.126352      2.2884  4.32971e-05
2920   0.0239662    0.126443     1.78234  1.42051e-05
2930   0.0235802    0.126098     1.97167  -7.37877e-05
2940   0.0254419    0.127764     2.73048  2.40748e-05
2950   0.0230987    0.125667     2.60481  0.000102288
2960   0.0233962    0.125933     2.03509  3.40343e-05
2970    0.022418    0.125058     1.78203  1.92923e-05
2980   0.0230103    0.125588     1.40257  -7.40932e-05
2990   0.0238998    0.126384     1.59227  -5.94951e-05
3000   0.0242002    0.126653     1.08609  4.89262e-05
3010   0.0229213    0.125508     1.40263  0.000118184
3020   0.0218365    0.124537     1.27592  6.90148e-05
3030    0.021541    0.124273     1.02286  -1.57766e-07
3040   0.0218397     0.12454    0.453571  -3.48764e-05
3050   0.0222385    0.124897    0.516928  -8.47025e-05
3060   0.0235338    0.126056     0.64321  -5.49999e-05
3070   0.0233385    0.125881     1.02304  -1.03791e-05
3080   0.0237413    0.126242     1.84533  -4.03344e-05
3090   0.0241452    0.126603     1.08615  -1.5438e-05
3100   0.0240501    0.126518     1.27586  3.45738e-05
3110   0.0234538    0.125985    0.896392  2.96206e-05
3120   0.0234577    0.125988     1.08541  6.49149e-05
3130   0.0221555    0.124823    0.895898  0.000130418
3140   0.0208493    0.123654     1.46525  6.02606e-05
3150   0.0209502    0.123744    0.769245  -4.54278e-05
3160   0.0217579    0.124467   0.0734277  -5.05624e-05
3170   0.0219615    0.124649     0.70632  9.97363e-06
3180   0.0215584    0.124288    0.706011  4.54362e-05
3190   0.0210528    0.123836    0.959502  0.000111546
3200   0.0193275    0.122292      1.0228  5.03762e-06
3210    0.020952    0.123746     1.27518  -0.000137239
3220   0.0220723    0.124748    0.389596  -2.5522e-05
3230   0.0214625    0.124202    0.452706  3.04389e-05
3240   0.0214635    0.124203   0.0729955  6.12549e-05
3250   0.0202374    0.123106  0.00939069  0.000107434
3260   0.0193148     0.12228   -0.559836  3.59744e-05
3270   0.0195179    0.122462   -0.559712  5.34728e-06
3280   0.0192079    0.122185   -0.243173  -4.9606e-06
3290   0.0196171    0.122551    -1.44554  -4.61337e-05
3300   0.0201305     0.12301    -1.82494  1.04886e-05
3310   0.0194073    0.122363      -1.129  3.10932e-05
3320   0.0195087    0.122454    -1.44548  3.12481e-05
3330   0.0187823    0.121804    -1.63549  4.16464e-05
3340   0.0186758    0.121708    -1.25584  -2.56556e-05
3350   0.0192955    0.122263    -1.00284  -2.04819e-05
3360   0.0190854    0.122075    -1.00315  2.10442e-05
3370   0.0188746    0.121886   -0.433554  2.63212e-05
3380    0.018559    0.121604   -0.623316  4.20539e-05
3390   0.0180335    0.121133   -0.243729  -8.33386e-05
3400   0.0202257    0.123095   -0.940103  -1.52989e-05
3410   0.0183395    0.121407   -0.496787  6.30219e-05
3420   0.0189653    0.121967    -1.25627  6.34064e-05
3430   0.0170714    0.120272     -0.1172  9.49776e-05
3440   0.0170657    0.120267   -0.243853  -2.57846e-05
3450    0.017587    0.120734   -0.686674  -9.99123e-06
3460   0.0172656    0.120446   -0.370753  5.76889e-06
3470   0.0174717    0.120631   -0.623873  4.28826e-05
3480   0.0164079    0.119679   -0.307828  0.000164859
3490   0.0141745     0.11768   -0.687044  0.000133418
3500   0.0137396     0.11729    -1.38317  -3.08964e-05
3510   0.0147924    0.118233    -2.14247  6.40703e-06
3520   0.0136114    0.117176    -2.33217  -2.57518e-05
3530   0.0153074    0.118694    -1.88997  1.71341e-05
3540   0.0132687    0.116869     -1.5097  0.000150674
3550    0.012294    0.115997    -2.64846  4.40351e-05
3560    0.012388    0.116081    -2.52224  2.27882e-05
3570   0.0118382    0.115589    -3.34422  4.96888e-05
3580   0.0113943    0.115191    -2.71102  6.06185e-05
3590   0.0106258    0.114504    -3.59709  6.61769e-05
3600   0.0100707    0.114007    -3.66008  2.85904e-05
3610    0.010054    0.113992    -3.47013  3.95423e-05
3620  0.00927988    0.113299    -2.96414  2.87711e-05
3630  0.00947861    0.113477    -3.53367  1.80836e-05
3640   0.0089182    0.112975    -2.58492  2.89513e-05
3650  0.00889958    0.112959    -2.01594  4.54186e-05
3660  0.00800983    0.112162    -2.20484  5.09445e-05
3670  0.00788069    0.112047    -2.26832  9.48547e-05
3680  0.00611274    0.110464    -2.39479  0.000160666
3690  0.00466738    0.109171      -2.331  5.16301e-05
3700  0.00508013     0.10954    -2.58473  -1.39054e-05
