Time   C(t)   
ps   
0           1           1  1.94081e-09   0.0349329
10    0.652699    0.831066    0.118007   0.0185088
20    0.629825     0.81994     0.45011  0.00208458
30    0.611007    0.810787    0.990521  0.00137668
40    0.602291    0.806547    0.655293  0.00127509
50    0.585506    0.798382     2.31954    0.001122
60    0.579851    0.795632    0.653913  0.000876868
70    0.567968    0.789852     2.23356  0.00105073
80    0.558837     0.78541  -0.0937119  0.000850958
90    0.550949    0.781573     1.65119  0.00068835
100     0.54507    0.778713     3.06339  0.000731972
110     0.53631    0.774452     2.19096  0.000636154
120    0.532347    0.772525    0.859949  0.000240335
130    0.531503    0.772114     2.10343  0.000465265
140    0.523041    0.767998     1.10725  0.000575975
150    0.519983    0.766511     1.64506  0.000518051
160     0.51268    0.762959     1.52046  0.000450939
170    0.510965    0.762124      1.6436  0.00067312
180    0.499218     0.75641     2.47798  0.000708018
190    0.496804    0.755236     1.47814  0.000258586
200    0.494046    0.753895       2.683  0.000493538
210    0.486934    0.750435     1.64486  0.000601022
220    0.482026    0.748048     1.85053  0.00044428
230    0.478048    0.746113     1.43517  0.000372589
240    0.474574    0.744423    0.561764  0.000249296
250    0.473062    0.743688    0.518673  0.000378385
260    0.467006    0.740742     1.72479  0.000340299
270    0.466256    0.740377     3.38595  0.000178157
280    0.463443    0.739009     1.68105  0.000642583
290    0.453404    0.734126     2.97144  0.000583299
300    0.451777    0.733334     2.92868  0.00014571
310     0.45049    0.732708     2.01283  0.000335698
320    0.445063    0.730068     1.18142  0.000500119
330    0.440488    0.727843     1.34814  0.000272267
340    0.439618     0.72742     2.34452  0.000532477
350    0.429838    0.722663     2.09552  0.000602366
360     0.42757     0.72156     1.59653  0.00018369
370    0.426165    0.720876      2.4675  0.000383665
380    0.419897    0.717827      1.3881  0.000362492
390    0.418915    0.717349     2.92401  0.000341807
400    0.413061    0.714502     1.92762  0.000303115
410    0.412852      0.7144     2.96426  0.000364973
420    0.405762    0.710951      2.5508  0.000478761
430    0.403277    0.709743     3.33965  0.000331612
440    0.399129    0.707725     3.42242  0.000131196
450    0.400653    0.708467     4.12822  4.4322e-05
460    0.398243    0.707294     2.50625  0.000355096
470    0.393551    0.705012     3.04695  0.000478442
480    0.388674     0.70264     4.75233  0.000317091
490     0.38721    0.701927     5.12517  0.000410171
500    0.380471    0.698649     3.79563  0.000124933
510    0.384711    0.700712     3.41845  0.000165413
520    0.377162     0.69704     2.50568  0.000297344
530    0.378764    0.697819     2.71135  0.000126398
540    0.374634    0.695811     1.63183  0.000497283
550    0.368818    0.692981     3.87714  0.000317018
560    0.368294    0.692726     2.37974  0.000136544
570    0.366087    0.691653     4.08362  0.000163312
580    0.365028    0.691138     3.04471  1.29774e-05
590    0.365828    0.691527     2.29421  0.000248365
600    0.360061    0.688722     3.66749  0.000426283
610    0.357302     0.68738     3.29327  3.14429e-05
620    0.359432    0.688416     1.42007  0.000388065
630    0.349541    0.683605     3.62521  0.000624521
640    0.346941     0.68234      3.3345  6.83576e-05
650    0.348174     0.68294     2.70912  0.00016254
660     0.34369    0.680759     3.16635  0.000363833
670    0.340897      0.6794      2.6681  0.000248328
680    0.338724    0.678343     3.58216   0.0001727
690    0.337443     0.67772     3.53984  9.68054e-05
700    0.336788    0.677401    0.962267  9.25526e-05
710    0.335592     0.67682     1.58468  0.000187171
720    0.333044     0.67558     1.00276  0.000354078
730     0.32851    0.673375    0.421978  0.000215034
740    0.328744    0.673488     1.66818  0.000152554
750    0.325459    0.671891     0.83815  4.4322e-05
760    0.327857    0.673057     3.41284  -1.85028e-05
770    0.325829    0.672071    0.544024  0.000216524
780    0.323527    0.670951     2.95553  0.000239597
790    0.321038     0.66974     2.99716  0.00034443
800    0.316638      0.6676  -0.0781444  0.000172545
810    0.317587    0.668061    0.377141  -4.04075e-05
820    0.317446    0.667993    0.127892  0.00019608
830    0.313665    0.666154     1.66648  0.000141636
840    0.314614    0.666615     -1.4122  0.000187764
850     0.30991    0.664327     1.12497  0.000484668
860     0.30492      0.6619   -0.745393  0.000161248
870    0.306685    0.662759    -1.49488  8.41096e-05
880    0.303238    0.661082     -1.4942  0.000258076
890    0.301523    0.660248    -1.61985  0.00026796
900    0.297879    0.658475    -1.49419  0.00039233
910    0.293677    0.656431    0.294248  -1.12429e-05
920    0.298104    0.658585   -0.913697  3.98487e-05
930     0.29288    0.656044    -1.24487  0.000154544
940    0.295013    0.657081    -1.12172  0.000192164
950    0.289036    0.654174    -2.07656  0.000192139
960     0.29117    0.655212     -2.8265  8.67501e-05
970    0.287301     0.65333    -3.36594  0.000317888
980    0.284812    0.652119    -3.15905  8.24809e-05
990    0.285652    0.652528    -3.20072  0.000138523
1000    0.282042    0.650772    -3.44993  0.000143203
1010    0.282788    0.651135   -0.291204  0.00012051
1020    0.279632    0.649599    -2.07912  9.26688e-05
1030    0.280934    0.650233    -2.70445  -0.000121099
1040    0.282054    0.650778    -5.11559  2.78041e-05
1050    0.280378    0.649963    -3.61831  0.000293748
1060    0.276179     0.64792    -2.86882  0.000270943
1070    0.274959    0.647327    -3.45135  5.04255e-06
1080    0.276078    0.647871     -2.9533  5.17815e-06
1090    0.274856    0.647276    -3.36898  3.79011e-05
1100     0.27532    0.647502    -1.58127  0.000113133
1110    0.272593    0.646176    -1.37402  8.03351e-05
1120    0.273713    0.646721    -2.53895  6.19307e-05
1130    0.271355    0.645573   -0.833806  7.1317e-05
1140    0.272287    0.646027    -2.83015  1.97962e-05
1150    0.270959    0.645381    -2.20713  0.000246264
1160    0.267361    0.643631   -0.542807  9.54688e-05
1170    0.269049    0.644452    -1.33494  0.000138566
1180     0.26459    0.642283    -1.29262  0.000228533
1190    0.264479    0.642229    -1.41816  8.22723e-05
1200    0.262945    0.641483    -1.21058  0.000277033
1210    0.258938    0.639534     -2.0831  7.79584e-05
1220    0.261386    0.640724    -1.21062  9.2724e-05
1230    0.257083    0.638632   0.0786312  0.000268811
1240    0.256009    0.638109    -2.00041  -5.46515e-05
1250    0.258177    0.639163     -1.5028  2.1787e-05
1260    0.255574    0.637897    -2.16835  0.000174524
1270    0.254686    0.637465    -1.21269  0.000270705
1280    0.250159    0.635264    -2.12647  0.000156131
1290    0.251563    0.635947   -0.921288  -1.58384e-05
1300    0.250476    0.635418    -2.91703  0.000118445
1310    0.249195    0.634794    -2.79214  0.000109126
1320    0.248294    0.634356    -1.87787  0.000162338
1330    0.245948    0.633215    -2.04463  0.00014332
1340    0.245427    0.632962    -2.21184  0.000134105
1350    0.243266     0.63191    -2.25233  0.000100518
1360    0.243417    0.631984    -1.67127  -4.89905e-05
1370    0.244245    0.632387    -2.62834  0.000202653
1380    0.239364    0.630012    -2.46016  0.000323947
1390    0.237767    0.629235    -3.12631  -0.000121496
1400    0.241794    0.631194    -1.42385  -0.000116582
1410    0.240098     0.63037     -3.0039  0.000237846
1420    0.237037    0.628881    -3.04492  0.000184738
1430    0.236403    0.628572    -3.08679  9.75646e-05
1440    0.235086    0.627931    -2.71261  7.82527e-05
1450    0.234838    0.627811    -3.29551  7.84911e-05
1460    0.233516    0.627168    -4.12659  9.81644e-05
1470    0.232875    0.626856    -2.92177  0.000152321
1480    0.230469    0.625686    -4.33442  0.000319291
1490    0.226489     0.62375    -3.29482  0.000118671
1500    0.228096    0.624532     -2.9632  -4.29191e-05
1510    0.227348    0.624168    -2.50662  0.000173354
1520    0.224629    0.622845    -3.25412  0.000232779
1530    0.222692    0.621903    -3.00446  0.000134718
1540    0.221934    0.621534    -2.88067  8.07703e-05
1550    0.221077    0.621117    -2.50645  8.59357e-05
1560    0.220216    0.620698    -4.46052  -2.9467e-06
1570    0.221136    0.621146    -5.50077  0.000160646
1580    0.217003    0.619136    -5.04204  0.000190528
1590    0.217325    0.619292    -6.53968  -1.73882e-05
1600    0.217351    0.619305    -5.25185  0.000131722
1610    0.214691    0.618011    -4.62753  0.000186668
1620    0.213617    0.617489    -5.99923  0.000157302
1630    0.211545    0.616481    -5.62611  5.27769e-05
1640    0.212562    0.616975     -6.7486  -1.68614e-05
1650    0.211882    0.616645    -4.00536  0.000183151
1660    0.208899    0.615194    -3.63142  0.000278608
1670     0.20631    0.613934    -4.79449  0.000249229
1680    0.203914    0.612769    -5.75051  0.000204644
1690    0.202217    0.611943    -5.87576  0.000109629
1700    0.201722    0.611703    -5.87621  0.000135159
1710    0.199514    0.610628    -6.25043  6.98648e-05
1720    0.200324    0.611023    -5.79429  3.99292e-05
1730    0.198715     0.61024    -6.37592  0.000181343
1740    0.196697    0.609259    -5.50248  9.07145e-05
1750    0.196901    0.609358    -6.00178  1.50971e-05
1760    0.196395    0.609112    -4.88027  0.000222988
1770    0.192441    0.607188    -5.37917  9.1327e-05
1780    0.194569    0.608223    -6.95886  -1.99057e-05
1790    0.192839    0.607382    -6.66806  4.08605e-05
1800    0.193752    0.607826    -5.54634  9.20989e-05
1810    0.190997    0.606486    -4.75647  0.000173734
1820    0.190277    0.606136    -4.50686  8.23334e-05
1830     0.18935    0.605685    -4.00844  0.000215489
1840    0.185967    0.604039    -5.33762  -1.45577e-05
1850    0.189642    0.605827    -4.09223  -0.000193567
1860    0.189839    0.605922    -5.79806  0.000154741
1870    0.186547    0.604321      -4.675  0.000345066
1880    0.182937    0.602565    -5.96344  0.000160671
1890    0.183333    0.602758    -6.33843  5.31204e-05
1900    0.181875    0.602049    -6.92052  8.41163e-05
1910    0.181651     0.60194    -7.87759  7.91959e-05
1920    0.180291    0.601278     -7.0463  7.93248e-05
1930    0.180064    0.601168     -6.7135  0.000250455
1940    0.175282    0.598842    -6.58768  0.000219698
1950     0.17567    0.599031    -5.84071  0.00016349
1960    0.172012    0.597251    -5.75729  0.000241546
1970     0.17084    0.596681    -5.96531  3.41997e-05
1980    0.171328    0.596919    -5.75798  0.000258414
1990    0.165671    0.594167    -6.00686  0.000326465
2000    0.164799    0.593743    -5.25863  -6.40936e-05
2010    0.166953    0.594791    -5.96661  0.000207849
2020    0.160642    0.591721    -4.42685  0.00029683
2030    0.161017    0.591903    -6.04877  -0.000137095
2040    0.163384    0.593054    -6.00889  -5.3335e-05
2050    0.162083    0.592422    -5.55121  0.000130221
2060    0.160779    0.591787    -4.55344  -9.79751e-07
2070    0.162103    0.592431    -4.84513  9.92864e-05
2080    0.158793    0.590822    -5.75822  0.000194191
2090    0.158219    0.590542    -5.55064  0.000163171
2100     0.15553    0.589234    -5.17638  0.000216347
2110    0.153892    0.588437    -5.50934  0.000206372
2120    0.151403    0.587226     -4.9279  0.000190926
2130    0.150074     0.58658    -4.26204  0.00011184
2140    0.149166    0.586138    -6.54906  0.000223772
2150    0.145598    0.584403    -5.46795  0.000107098
2160    0.147024    0.585097    -5.75976  0.000102368
2170    0.143551    0.583407    -4.92717  0.000144981
2180    0.144124    0.583686    -6.96527  0.000268511
2190    0.138181    0.580795    -5.34282  0.000220647
2200    0.139711     0.58154    -6.25818  7.17148e-05
2210    0.136746    0.580097    -4.76098  5.01424e-05
2220    0.138708    0.581052    -7.04881  8.27931e-05
2230     0.13509    0.579292    -6.63228  0.000238588
2240    0.133937    0.578731    -5.92551  7.87303e-06
2250    0.134933    0.579215     -5.5108  1.88395e-05
2260     0.13356    0.578547    -5.80176  0.000180627
2270     0.13132    0.577458    -6.34128  0.000197237
2280    0.129615    0.576629    -4.92786  -9.4422e-05
2290    0.133209    0.578377    -5.84424  -2.38702e-05
2300    0.130093    0.576861     -5.6778  0.000246896
2310    0.128271    0.575975    -6.13548  0.000144398
2320    0.127205    0.575456    -7.29928  -4.55663e-05
2330    0.129182    0.576418    -6.30224  2.53163e-05
2340    0.126698     0.57521    -5.05519  0.000123291
2350    0.126716    0.575219     -7.3418  3.63939e-05
2360     0.12597    0.574856    -6.84322  0.000238753
2370    0.121941    0.572896    -8.42295  0.000200839
2380    0.121954    0.572902      -7.508  -0.000105413
2390     0.12405    0.573921    -7.71659  0.000147009
2400    0.119013    0.571472    -7.34176  7.54524e-05
2410    0.122541    0.573187    -7.42636  3.76988e-05
2420    0.118259    0.571105    -5.97136  0.000417627
2430    0.114188    0.569125    -8.00759  0.000192415
2440    0.114411    0.569233    -6.51157  -2.78711e-05
2450    0.114745    0.569396    -8.38282  5.50807e-05
2460     0.11331    0.568697    -8.17488  0.000177043
2470    0.111205    0.567673    -7.01124  0.000227418
2480    0.108761    0.566485     -7.6341  0.000239102
2490    0.106423    0.565347    -7.75944  0.000139595
2500    0.105969    0.565127    -8.25753  0.000101075
2510    0.104401    0.564364    -8.83998  -2.1432e-05
2520    0.106398    0.565335     -7.7598  -8.82883e-05
2530    0.106167    0.565223    -5.55701  0.000280477
2540    0.100788    0.562607    -6.84408  0.00029213
2550    0.100324    0.562381    -6.84428  -0.000133015
2560    0.103449    0.563901    -7.05291  -6.01597e-05
2570    0.101527    0.562966    -6.84607  0.000276788
2580   0.0979129    0.561208    -8.30021  0.000142291
2590   0.0986816    0.561582    -7.63605  7.52628e-05
2600   0.0964077    0.560476     -6.8883  0.000120448
2610   0.0962726     0.56041    -7.76041  4.17732e-05
2620   0.0955722     0.56007    -7.63585  0.000166388
2630   0.0929449    0.558792    -8.21716  0.000155372
2640   0.0924648    0.558558    -8.05133  9.91821e-05
2650   0.0909612    0.557827    -9.17399  9.9384e-05
2660   0.0904771    0.557591    -9.21651  0.000105419
2670   0.0888529    0.556801    -8.42636  0.000213939
2680   0.0861983     0.55551    -8.13532  0.000111693
2690    0.086619    0.555714    -8.34424  -7.82385e-06
2700   0.0863548    0.555586    -7.76195  0.000169549
2710    0.083228    0.554065    -6.30703  0.000284453
2720   0.0806657    0.552819    -7.30533  0.000354165
2730   0.0761447     0.55062    -7.17983  0.000234298
2740   0.0759798    0.550539    -6.84801  5.68148e-05
2750   0.0750084    0.550067    -6.88968  2.2345e-05
2760   0.0755329    0.550322    -6.18312  -8.13898e-05
2770   0.0766362    0.550859    -7.43087  5.10961e-06
2780   0.0754307    0.550272    -6.55823  0.000248059
2790    0.071675    0.548445    -6.93095  0.000132665
2800   0.0727774    0.548982    -7.68069  -0.000162626
2810   0.0749275    0.550028    -5.93464  0.000133395
2820   0.0701095    0.547684    -6.30825  0.00015074
2830   0.0719128    0.548561    -5.14498  -4.06947e-05
2840   0.0709234     0.54808    -4.64689  0.000215777
2850   0.0675972    0.546462    -7.26488  0.000111025
2860   0.0687029       0.547    -5.43671  -2.87965e-05
2870   0.0681731    0.546742    -5.81032  9.99294e-05
2880   0.0667043    0.546028    -5.64364  0.000240983
2890   0.0633535    0.544398    -6.30935  0.000176883
2900   0.0631666    0.544307    -5.93489  1.28299e-05
2910   0.0630969    0.544273    -5.10425  -2.8386e-05
2920   0.0637343    0.544583    -6.06022  0.000142732
2930   0.0602423    0.542884    -5.10506  5.41862e-05
2940   0.0626506    0.544056     -5.1051  -2.21793e-05
2950   0.0606858      0.5431    -4.68901  0.000107845
2960   0.0604937    0.543007    -5.39683  0.000120142
2970    0.058283    0.541931     -6.1869  0.000156033
2980    0.057373    0.541489    -6.31191  6.13363e-05
2990   0.0570563    0.541335     -5.9796  -0.000117318
3000   0.0597194     0.54263    -6.39671  -4.00711e-06
3010   0.0571364    0.541374    -5.31454  0.000180945
3020   0.0561005     0.54087    -4.35816  0.000199522
3030    0.053146    0.539433    -4.64888  0.000134007
3040   0.0534203    0.539566    -6.22946  5.65697e-05
3050   0.0520146    0.538882    -5.18909  -5.1613e-05
3060   0.0544526    0.540068    -5.98025  -8.15611e-05
3070   0.0536458    0.539676    -5.48179  0.000104874
3080   0.0523551    0.539048    -5.93882  8.7014e-05
3090   0.0519055    0.538829    -5.31548  0.000135717
3100   0.0496408    0.537728    -6.27056  0.000148087
3110   0.0489438    0.537389    -4.85804  -8.78902e-05
3120   0.0513986    0.538583    -4.69229  8.21371e-05
3130    0.047301     0.53659    -4.31755  0.000258316
3140   0.0462323     0.53607    -6.06379  0.000210557
3150   0.0430899    0.534541    -4.27592  -1.47168e-05
3160   0.0465266    0.536213    -5.73173  4.05591e-06
3170   0.0430088    0.534502    -6.27162  0.000119793
3180   0.0441307    0.535047    -5.23295  1.63281e-05
3190   0.0426822    0.534343    -5.27421  8.98447e-05
3200   0.0423339    0.534173    -6.72954  0.000194664
3210    0.038789    0.532449    -6.43671  0.000201146
3220   0.0383109    0.532217    -5.56513  -8.15734e-05
3230   0.0404204    0.533243    -6.43878  -9.39373e-05
3240   0.0401897     0.53313    -6.56396  5.39595e-05
3250   0.0393412    0.532718    -5.98163  0.000103575
3260   0.0381182    0.532123    -7.47814  0.000128683
3270   0.0367676    0.531466    -7.76906  4.21284e-05
3280   0.0372756    0.531713    -5.89914  -6.95586e-05
3290   0.0381587    0.532143    -6.68893  2.36806e-05
3300    0.036802    0.531483    -7.77015  0.000254388
3310    0.033071    0.529668    -6.19043  6.75427e-05
3320   0.0354512    0.530825     -5.9411  4.94502e-05
3330    0.032082    0.529187    -5.69185  4.91805e-05
3340   0.0344675    0.530347    -7.68771  -0.000138504
3350   0.0348521    0.530534    -7.06416  0.000137445
3360   0.0317187     0.52901    -7.97778  7.46623e-05
3370   0.0333588    0.529808     -8.2282  -0.000101259
3380   0.0337438    0.529995    -7.97859  -5.11596e-05
3390    0.034382    0.530305    -8.14514  -6.39278e-05
3400   0.0350224    0.530617    -7.27218  -7.12555e-06
3410   0.0345245    0.530375    -7.10591  0.000208375
3420   0.0308549     0.52859    -6.69018  0.000176994
3430   0.0309847    0.528653    -8.89374  0.00015876
3440   0.0276797    0.527045    -7.35516  0.000222688
3450   0.0265309    0.526487    -7.68759  -3.16944e-05
3460   0.0283136    0.527354    -8.06314  -4.43586e-05
3470   0.0274181    0.526918     -7.0653  0.000243317
3480   0.0234472    0.524987    -7.18909  2.59106e-05
3490   0.0268999    0.526666    -6.98281  -5.55711e-06
3500   0.0235584    0.525041     -6.8987  0.000167503
3510   0.0235498    0.525036    -6.81515  0.000110339
3520   0.0213516    0.523967    -8.10396  0.000104047
3530   0.0214689    0.524024    -5.44357  -0.000102166
3540   0.0233949    0.524961    -6.35889  1.16406e-06
3550   0.0214456    0.524013    -6.81625  5.91919e-05
3560   0.0222111    0.524385    -7.02436  -7.0208e-05
3570   0.0228497    0.524696    -6.65046  5.95656e-05
3580   0.0210198    0.523806    -7.85601  0.000163741
3590   0.0195749    0.523103    -7.48171  0.000131667
3600   0.0183864    0.522525    -7.77316  0.000171259
3610   0.0161497    0.521437    -7.93951  0.00010632
3620     0.01626    0.521491    -7.39894  -1.10529e-05
3630   0.0163708    0.521544    -7.39979  0.000185724
3640   0.0125455    0.519684    -7.31528  6.7696e-05
3650   0.0150169    0.520886     -7.3582  -6.97914e-05
3660   0.0139414    0.520363    -7.64933  0.000246142
3670    0.010094    0.518491    -8.31385  0.000207077
3680  0.00979983    0.518348    -7.56623  8.89746e-05
3690  0.00831455    0.517626    -7.19173  5.60488e-05
3700  0.00867886    0.517803    -9.02111  -5.6398e-05
3710  0.00944251    0.518174    -7.15164  0.000182643
3720  0.00502601    0.516026    -7.15107  0.000322568
3730  0.00299115    0.515036    -6.40239   5.717e-05
3740  0.00388261     0.51547    -6.69432  -5.59262e-05
3750  0.00410967     0.51558    -6.56944  6.42098e-05
3760  0.00259841    0.514845    -6.77771  8.4404e-05
3770  0.00242159    0.514759    -7.31852  0.000158564
3780  -0.000572864    0.513303    -6.15424  -5.61958e-05
3790  0.00354551    0.515306    -7.19437  0.000119199
3800  -0.00295684    0.512143    -6.77726  0.000462525
3810  -0.00570499    0.510806    -7.19319  7.94657e-05
3820  -0.00454615     0.51137     -7.5263  -1.46433e-05
3830  -0.00541213    0.510949     -4.5754  5.96453e-05
3840  -0.00573906     0.51079    -5.24087  5.3114e-05
3850  -0.00647441    0.510432    -5.36575  8.72285e-05
3860  -0.00748363    0.509941    -6.11395  0.000237227
3870  -0.0112189    0.508124    -4.90815  0.00017643
3880  -0.0110122    0.508225    -5.53248  -2.32831e-07
3890  -0.0112143    0.508127     -4.5345  8.18185e-05
3900  -0.0126486    0.507429    -3.99421  1.34669e-05
3910  -0.0114836    0.507996    -4.61829  -2.05986e-05
3920  -0.0122366    0.507629    -5.49194  0.000171682
3930  -0.0149173    0.506325    -4.24432  6.87989e-05
3940  -0.0136126     0.50696    -4.32802  0.000221077
3950  -0.0193388    0.504175    -5.24176  0.000380137
3960  -0.0212153    0.503262    -4.32701  0.000104917
3970  -0.0214371    0.503154    -6.07317  -8.87112e-05
3980  -0.0194411    0.504125    -5.11748  -1.24192e-05
3990  -0.0211887    0.503275    -5.15858  0.000133297
4000   -0.022107    0.502828    -5.03394  8.37538e-06
4010  -0.0213562    0.503193    -4.74379  8.53108e-05
4020  -0.0238133    0.501998    -5.24188  0.000225133
4030  -0.0258589    0.501003    -4.90909  7.18744e-05
4040  -0.0252507    0.501299    -3.53812  5.83218e-05
4050  -0.0270253    0.500436    -4.32786  0.000135588
4060  -0.0279625     0.49998    -2.54043  0.000248703
4070  -0.0319994    0.498016    -3.37192  0.000263401
4080  -0.0332305    0.497417    -3.08076  0.000151549
4090  -0.0350304    0.496542    -4.12024  0.000102518
4100  -0.0352809     0.49642    -3.49718  -9.53864e-05
4110  -0.0331226     0.49747    -2.70784  7.47817e-05
4120  -0.0367765    0.495693    -4.03783  0.000344708
4130  -0.0400168    0.494116    -3.33143  4.68615e-05
4140  -0.0377138    0.495237    -3.20683  0.000218662
4150    -0.04439    0.491989    -3.78806  0.000182912
4160   -0.041372    0.493457    -3.29078  -5.89743e-05
4170  -0.0432106    0.492563    -3.45685  0.000198514
4180  -0.0453423    0.491526    -3.62268  0.000120179
4190  -0.0456141    0.491394    -4.32948  -5.19101e-05
4200  -0.0443041    0.492031    -3.45669  -4.47568e-05
4210   -0.044719    0.491829    -2.58417  9.93323e-05
4220  -0.0462907    0.491065    -3.29086  0.000179132
4230  -0.0483016    0.490087    -3.33204  -3.76314e-05
4240  -0.0455381    0.491431    -4.16378  -5.18488e-05
4250  -0.0472647    0.490591    -5.32806  -5.96942e-05
4260  -0.0443442    0.492012    -4.41404  6.02584e-06
4270  -0.0473852    0.490532    -4.82839  -1.75852e-06
4280   -0.044309    0.492029    -5.32843  -8.53781e-06
4290  -0.0472144    0.490615    -3.70719  0.000122679
4300  -0.0467626    0.490835    -4.20618  -4.52563e-05
4310  -0.0463093    0.491056    -3.49965  -0.000111525
4320  -0.0445321     0.49192     -4.8309  6.48133e-05
4330  -0.0476056    0.490425    -3.54165  0.000278406
4340  -0.0501002    0.489212    -4.24797  0.000176059
4350  -0.0511267    0.488712    -3.12609  -4.51522e-05
4360  -0.0491972    0.489651    -3.41692  8.09424e-05
4370  -0.0527456    0.487925    -2.79354  7.33327e-05
4380  -0.0506638    0.488938    -3.91652  -1.5161e-05
4390  -0.0524424    0.488072    -3.00103  0.000222869
4400  -0.0551212    0.486769    -3.70809  0.00018627
4410  -0.0561678     0.48626    -3.58304  4.5008e-05
4420  -0.0560214    0.486332     -3.1258  -3.7129e-05
4430  -0.0554252    0.486622    -3.58429  -3.72268e-05
4440  -0.0552768    0.486694    -3.50014  -5.24461e-05
4450  -0.0543763    0.487132    -2.33748  0.000180933
4460  -0.0588955    0.484934    -1.58815  0.000384845
4470  -0.0620732    0.483388     -3.1256  3.10602e-05
4480  -0.0595167    0.484631    -2.46148  -6.67648e-05
4490  -0.0607379    0.484037    -2.37846  0.000281644
4500  -0.0651496    0.481891    -2.75236  0.000251959
4510   -0.065777    0.481586    -2.37777  0.000146644
4520  -0.0680825    0.480465     -2.0451  5.54882e-05
4530  -0.0668868    0.481046   -0.923663  2.54173e-05
4540  -0.0685908    0.480218     -1.5477  0.000163073
4550  -0.0701483     0.47946    -2.46229  4.8672e-05
4560  -0.0695643    0.479744    -1.25682  -5.08748e-05
4570  -0.0691308    0.479955    -1.63132  0.000256845
4580  -0.0747012    0.477245     -1.4224  0.00018014
4590  -0.0727336    0.478202    -1.83898  -5.03261e-05
4600  -0.0736946    0.477735    -2.54567  7.30723e-05
4610   -0.074195    0.477492    -1.13169  -0.000174794
4620  -0.0701988    0.479435    -2.25532  -9.73195e-05
4630  -0.0722486    0.478438    -1.83931  0.000104157
4640  -0.0722819    0.478422    -2.29695  0.000151527
4650  -0.0752792    0.476964    -2.00546  0.000120559
4660  -0.0746931    0.477249    -2.08876  3.91528e-06
4670  -0.0753575    0.476926   -0.966875  0.00012932
4680  -0.0772795    0.475991    -1.67315  4.32529e-05
4690  -0.0762225    0.476505      -1.549  -4.29157e-05
4700  -0.0764212    0.476409    -3.25337  4.11421e-06
4710  -0.0763048    0.476465    -2.25621  0.000178053
4720  -0.0799822    0.474677    -2.87879  -3.74056e-06
4730    -0.07623    0.476502    -3.08795  -0.000225206
4740  -0.0754781    0.476867    -2.83898  0.000234654
4750  -0.0809231    0.474219    -2.17295  0.000123484
4760  -0.0779478    0.475666    -1.88252  2.89984e-05
4770   -0.081503    0.473937    -1.96509  0.000212352
4780  -0.0821948      0.4736      -1.716  0.000229492
4790  -0.0860929    0.471704    -1.00863  0.00017386
4800   -0.085672    0.471909    -1.29987  -9.98676e-06
4810  -0.0858931    0.471801     -1.2175  -1.00635e-05
4820  -0.0854708    0.472007    -2.13238  6.25983e-05
4830  -0.0871451    0.471192    -3.21304  0.00017586
4840   -0.088988    0.470296    -1.46647  -9.84259e-06
4850  -0.0869483    0.471288     -1.0929  3.10816e-05
4860  -0.0896096    0.469994    -2.62998  -4.24471e-05
4870  -0.0860993    0.471701    -2.38126  -5.01793e-05
4880   -0.088606    0.470482   -0.967889  0.000104203
4890  -0.0881834    0.470687    0.112487  -5.87504e-05
4900   -0.087431    0.471053    -2.00769  -2.61527e-05
4910  -0.0876603    0.470942    -2.13238  0.000154373
4920  -0.0905185    0.469552    -1.13461  0.000245222
4930  -0.0925648    0.468556    -1.54928  -5.05958e-05
4940  -0.0895065    0.470044    -0.76092  -2.54847e-05
4950  -0.0920551    0.468804    -1.21754  1.52651e-05
4960  -0.0898118    0.469895    -1.75848  0.000173403
4970  -0.0955231    0.467117   -0.427478  -9.57325e-06
4980  -0.0896204    0.469988   -0.304579  -1.10269e-07
4990  -0.0955209    0.467118  -0.0956608  9.35271e-06
