Time   Number   
ps   
0          25          29
10          24          28
20          25          30
30          24          26
40          25          29
50          23          23
60          25          27
70          25          24
80          26          28
90          28          22
100          26          23
110          27          26
120          30          21
130          27          24
140          26          28
150          23          27
160          25          23
170          24          25
180          24          27
190          22          24
200          22          21
210          21          26
220          29          19
230          26          21
240          22          26
250          24          21
260          25          22
270          23          23
280          23          25
290          23          24
300          26          22
310          25          25
320          23          33
330          28          24
340          27          31
350          30          24
360          26          26
370          26          25
380          28          20
390          28          21
400          24          28
410          25          25
420          25          25
430          29          26
440          25          22
450          25          24
460          27          23
470          25          21
480          25          22
490          25          24
500          26          24
510          22          23
520          19          28
530          24          26
540          26          26
550          24          26
560          23          32
570          25          25
580          24          24
590          26          23
600          22          24
610          24          23
620          27          24
630          22          29
640          25          26
650          25          25
660          21          26
670          26          31
680          30          25
690          26          22
700          26          27
710          23          22
720          28          17
730          20          30
740          26          26
750          28          22
760          30          21
770          24          28
780          26          24
790          26          25
800          26          25
810          28          24
820          28          31
830          27          24
840          28          25
850          29          23
860          26          30
870          30          23
880          32          24
890          27          29
900          27          25
910          25          25
920          27          27
930          27          22
940          24          26
950          27          21
960          30          18
970          29          23
980          25          26
990          27          20
1000          28          21
1010          29          20
1020          24          25
1030          28          23
1040          27          25
1050          24          28
1060          27          24
1070          25          30
1080          23          30
1090          25          29
1100          28          25
1110          27          24
1120          26          31
1130          27          22
1140          26          31
1150          28          26
1160          29          27
1170          24          28
1180          31          32
1190          30          31
1200          28          29
1210          23          34
1220          27          33
1230          28          24
1240          24          26
1250          25          29
1260          26          29
1270          26          28
1280          29          28
1290          28          26
1300          24          28
1310          26          28
1320          26          22
1330          26          24
1340          33          22
1350          29          25
1360          25          25
1370          24          27
1380          27          27
1390          26          26
1400          27          30
1410          29          23
1420          26          28
1430          27          30
1440          26          26
1450          25          33
1460          24          33
1470          22          32
1480          28          24
1490          27          23
1500          31          28
1510          28          23
1520          24          26
1530          27          24
1540          26          25
1550          29          21
1560          27          25
1570          25          22
1580          24          32
1590          30          25
1600          30          22
1610          27          24
1620          27          23
1630          26          24
1640          28          27
1650          29          23
1660          29          24
1670          28          29
1680          26          22
1690          25          30
1700          24          30
1710          28          27
1720          28          24
1730          26          29
1740          29          24
1750          29          19
1760          28          27
1770          29          27
1780          27          23
1790          23          30
1800          26          23
1810          30          22
1820          28          30
1830          32          22
1840          32          25
1850          32          21
1860          26          28
1870          24          32
1880          30          31
1890          31          25
1900          29          29
1910          27          26
1920          29          28
1930          29          21
1940          29          21
1950          30          25
1960          27          23
1970          23          29
1980          27          22
1990          32          22
2000          26          23
2010          31          19
2020          28          20
2030          30          27
2040          27          30
2050          28          23
2060          25          27
2070          30          21
2080          32          20
2090          29          24
2100          26          24
2110          29          28
2120          27          24
2130          30          24
2140          26          19
2150          29          19
2160          23          23
2170          25          22
2180          24          19
2190          29          22
2200          26          21
2210          26          25
2220          25          26
2230          27          20
2240          25          30
2250          26          22
2260          26          24
2270          26          24
2280          29          15
2290          25          26
2300          29          14
2310          25          27
2320          27          22
2330          24          26
2340          27          26
2350          24          25
2360          25          17
2370          24          20
2380          25          23
2390          25          25
2400          24          24
2410          24          21
2420          27          23
2430          28          20
2440          27          18
2450          24          21
2460          28          19
2470          25          24
2480          23          28
2490          25          26
2500          23          28
2510          24          29
2520          23          31
2530          23          24
2540          27          25
2550          23          32
2560          28          22
2570          24          29
2580          24          28
2590          25          27
2600          27          23
2610          26          25
2620          21          27
2630          25          26
2640          25          24
2650          25          21
2660          27          27
2670          26          21
2680          24          20
2690          27          24
2700          26          27
2710          23          28
2720          26          25
2730          26          31
2740          25          31
2750          24          26
2760          25          23
2770          22          28
2780          23          25
2790          27          22
2800          30          23
2810          28          18
2820          25          22
2830          24          29
2840          27          22
2850          25          28
2860          26          32
2870          26          24
2880          24          28
2890          27          25
2900          29          27
2910          23          24
2920          22          27
2930          25          29
2940          23          26
2950          24          23
2960          25          28
2970          23          31
2980          22          28
2990          24          26
3000          24          25
3010          27          24
3020          23          28
3030          25          20
3040          25          23
3050          24          25
3060          22          26
3070          24          28
3080          24          30
3090          19          25
3100          25          26
3110          20          32
3120          24          20
3130          22          27
3140          22          26
3150          25          21
3160          25          25
3170          25          25
3180          27          23
3190          26          20
3200          25          22
3210          26          17
3220          23          23
3230          27          24
3240          23          28
3250          24          24
3260          23          27
3270          25          29
3280          28          23
3290          26          26
3300          23          31
3310          24          23
3320          27          20
3330          26          18
3340          22          25
3350          23          24
3360          21          21
3370          22          22
3380          20          26
3390          20          24
3400          27          19
3410          25          23
3420          25          21
3430          21          24
3440          23          20
3450          24          22
3460          24          20
3470          22          17
3480          21          24
3490          26          15
3500          22          28
3510          19          31
3520          22          26
3530          22          23
3540          18          31
3550          22          27
3560          20          23
3570          23          24
3580          22          27
3590          22          23
3600          20          25
3610          22          29
3620          16          28
3630          20          22
3640          23          25
3650          24          23
3660          24          19
3670          24          18
3680          17          27
3690          20          21
3700          21          25
3710          21          25
3720          22          28
3730          18          30
3740          21          22
3750          22          23
3760          24          18
3770          24          19
3780          18          23
3790          21          23
3800          22          24
3810          22          22
3820          21          23
3830          22          25
3840          21          22
3850          22          22
3860          22          23
3870          21          22
3880          21          23
3890          22          28
3900          21          22
3910          21          22
3920          24          20
3930          21          27
3940          23          27
3950          23          25
3960          22          25
3970          21          20
3980          17          25
3990          20          25
4000          18          22
4010          20          23
4020          21          17
4030          20          25
4040          24          20
4050          20          26
4060          24          26
4070          22          25
4080          22          26
4090          21          25
4100          22          25
4110          21          27
4120          20          31
4130          21          24
4140          22          17
4150          21          20
4160          24          20
4170          19          24
4180          24          24
4190          21          24
4200          22          19
4210          19          24
4220          17          26
4230          19          25
4240          23          21
4250          25          21
4260          24          18
4270          24          19
4280          22          22
4290          22          23
4300          22          27
4310          21          24
4320          22          19
4330          26          19
4340          22          25
4350          22          24
4360          22          26
4370          24          26
4380          24          26
4390          27          28
4400          24          24
4410          25          25
4420          24          25
4430          24          27
4440          22          29
4450          27          25
4460          26          24
4470          27          24
4480          26          26
4490          26          22
4500          26          20
4510          25          18
4520          27          22
4530          24          24
4540          25          26
4550          21          27
4560          25          25
4570          25          26
4580          25          23
4590          27          22
4600          25          24
4610          27          28
4620          24          28
4630          29          24
4640          24          28
4650          25          26
4660          23          26
4670          23          25
4680          25          33
4690          21          30
4700          24          25
4710          27          19
4720          25          29
4730          23          25
4740          24          17
4750          23          21
4760          24          26
4770          23          30
4780          25          23
4790          23          26
4800          24          23
4810          23          24
4820          24          24
4830          19          29
4840          24          24
4850          23          20
4860          20          31
4870          22          24
4880          22          25
4890          24          21
4900          22          28
4910          22          22
4920          25          20
4930          22          25
4940          22          24
4950          24          21
4960          26          25
4970          26          24
4980          26          21
4990          22          27
5000          25          20
5010          23          23
5020          23          25
5030          27          22
5040          21          28
5050          24          25
5060          24          20
5070          24          22
5080          28          21
5090          26          26
5100          26          22
5110          24          24
5120          24          22
5130          22          22
5140          23          25
5150          23          27
5160          25          19
5170          28          22
5180          27          23
5190          23          25
5200          23          22
5210          25          20
5220          24          24
5230          24          19
5240          20          24
5250          22          20
5260          22          22
5270          24          22
5280          23          21
5290          24          23
5300          23          21
5310          20          27
5320          22          24
5330          20          27
5340          20          25
5350          24          18
5360          21          21
5370          20          23
5380          19          24
5390          21          24
5400          20          23
5410          18          24
5420          23          18
5430          21          23
5440          24          22
5450          22          21
5460          22          20
5470          22          18
5480          20          20
5490          22          20
5500          21          17
5510          23          21
5520          24          18
5530          21          19
5540          23          16
5550          20          23
5560          22          19
5570          22          20
5580          21          19
5590          22          18
5600          23          16
5610          22          21
5620          22          19
5630          21          21
5640          22          24
5650          21          24
5660          22          27
5670          25          23
5680          25          21
5690          24          20
5700          23          22
5710          24          22
5720          22          24
5730          22          19
5740          24          20
5750          21          25
5760          22          21
5770          25          20
5780          25          22
5790          25          19
5800          25          22
5810          25          24
5820          25          22
5830          28          18
5840          24          23
5850          24          27
5860          24          25
5870          25          21
5880          22          23
5890          23          24
5900          25          25
5910          25          23
5920          26          19
5930          27          18
5940          23          23
5950          28          15
5960          26          23
5970          23          22
5980          24          19
5990          23          21
6000          24          22
6010          26          18
6020          25          25
6030          26          24
6040          24          24
6050          25          18
6060          23          20
6070          23          17
6080          23          23
6090          25          19
6100          22          21
6110          21          29
6120          20          26
6130          24          22
6140          23          21
6150          26          21
6160          27          16
6170          24          16
6180          26          18
6190          22          25
6200          27          21
6210          22          23
6220          26          18
6230          20          26
6240          22          25
6250          24          28
6260          24          22
6270          21          22
6280          23          22
6290          23          24
6300          28          13
6310          24          19
6320          22          22
6330          23          22
6340          23          20
6350          25          23
6360          25          22
6370          23          22
6380          25          19
6390          19          22
6400          19          20
6410          24          26
6420          26          18
6430          27          18
6440          21          26
6450          19          21
6460          24          20
6470          26          18
6480          24          17
6490          26          19
6500          25          20
6510          24          22
6520          25          15
6530          26          18
6540          27          25
6550          26          20
6560          24          21
6570          28          18
6580          25          20
6590          28          22
6600          22          23
6610          24          25
6620          25          27
6630          25          21
6640          22          28
6650          22          25
6660          23          25
6670          18          30
6680          25          21
6690          27          26
6700          26          21
6710          23          26
6720          23          27
6730          24          26
6740          26          22
6750          23          28
6760          24          25
6770          24          27
6780          21          26
6790          25          25
6800          27          24
6810          24          21
6820          23          21
6830          24          25
6840          25          25
6850          24          30
6860          23          23
6870          24          19
6880          22          21
6890          25          26
6900          27          20
6910          26          23
6920          25          23
6930          27          27
6940          24          26
6950          25          25
6960          25          25
6970          23          21
6980          25          23
6990          24          24
7000          27          26
7010          23          27
7020          22          31
7030          26          24
7040          25          22
7050          25          31
7060          24          31
7070          27          22
7080          25          26
7090          26          30
7100          22          27
7110          20          29
7120          26          23
7130          21          26
7140          23          23
7150          23          26
7160          23          26
7170          26          22
7180          24          24
7190          29          18
7200          21          20
7210          22          21
7220          25          24
7230          23          25
7240          25          30
7250          27          23
7260          26          23
7270          29          26
7280          26          31
7290          30          22
7300          28          29
7310          29          27
7320          28          23
7330          28          30
7340          29          23
7350          25          25
7360          24          27
7370          28          21
7380          30          23
7390          25          22
7400          28          21
7410          23          20
7420          27          24
7430          23          28
7440          28          25
7450          22          26
7460          24          27
7470          27          26
7480          26          28
7490          25          25
7500          28          20
7510          24          24
7520          25          20
7530          25          26
7540          25          24
7550          27          19
7560          26          29
7570          26          29
7580          23          30
7590          22          29
7600          20          29
7610          23          22
7620          25          29
7630          24          27
7640          24          28
7650          20          25
7660          22          25
7670          23          25
7680          25          25
7690          21          25
7700          22          27
7710          19          27
7720          24          26
7730          23          31
7740          24          27
7750          24          23
7760          27          23
7770          27          25
7780          23          31
7790          24          25
7800          23          30
7810          23          24
7820          25          23
7830          22          29
7840          26          25
7850          25          24
7860          21          34
7870          26          26
7880          24          26
7890          25          29
7900          25          29
7910          27          32
7920          27          28
7930          26          28
7940          25          17
7950          22          21
7960          21          26
7970          20          24
7980          24          16
7990          24          25
8000          23          25
8010          25          25
8020          23          24
8030          22          22
8040          24          21
8050          23          23
8060          22          26
8070          21          29
8080          23          25
8090          22          24
8100          23          23
8110          25          24
8120          24          21
8130          23          23
8140          25          25
8150          23          21
8160          24          25
8170          26          20
8180          24          24
8190          24          22
8200          26          26
8210          27          22
8220          26          22
8230          26          28
8240          25          21
8250          22          33
8260          23          23
8270          22          31
8280          23          30
8290          26          23
8300          23          25
8310          28          22
8320          23          24
8330          27          23
8340          28          28
8350          27          28
8360          25          23
8370          26          23
8380          25          24
8390          27          20
8400          24          22
8410          28          23
8420          26          17
8430          27          20
8440          28          19
8450          22          25
8460          25          23
8470          22          19
8480          24          25
8490          27          23
8500          26          17
8510          27          24
8520          24          25
8530          27          22
8540          29          18
8550          27          25
8560          25          19
8570          22          27
8580          25          23
8590          28          19
8600          26          18
8610          27          21
8620          26          23
8630          24          25
8640          25          21
8650          25          21
8660          25          24
8670          23          22
8680          27          24
8690          25          19
8700          27          21
8710          27          22
8720          25          25
8730          27          25
8740          27          22
8750          26          23
8760          23          27
8770          25          22
8780          23          21
8790          24          23
8800          24          21
8810          24          21
8820          24          21
8830          25          27
8840          23          21
8850          24          24
8860          26          20
8870          23          24
8880          23          24
8890          24          25
8900          25          20
8910          24          24
8920          28          26
8930          27          27
8940          25          15
8950          26          21
8960          25          21
8970          27          21
8980          23          24
8990          26          25
9000          25          21
9010          24          29
9020          26          31
9030          25          27
9040          26          22
9050          26          24
9060          25          29
9070          25          24
9080          24          21
9090          24          29
9100          24          26
9110          27          26
9120          29          21
9130          22          29
9140          24          24
9150          23          27
9160          24          25
9170          24          28
9180          23          30
9190          24          30
9200          26          27
9210          25          22
9220          25          27
9230          25          23
9240          26          23
9250          25          21
9260          28          27
9270          25          27
9280          25          23
9290          27          26
9300          26          23
9310          24          27
9320          26          28
9330          28          26
9340          24          29
9350          28          24
9360          26          26
9370          26          30
9380          26          27
9390          27          34
9400          26          33
9410          25          26
9420          25          22
9430          24          23
9440          25          25
9450          26          22
9460          25          28
9470          25          29
9480          27          20
9490          27          25
9500          26          27
9510          24          23
9520          23          27
9530          26          21
9540          26          21
9550          23          28
9560          27          19
9570          24          24
9580          26          23
9590          24          23
9600          20          30
9610          25          24
9620          24          29
9630          24          27
9640          25          23
9650          28          18
9660          24          24
9670          28          24
9680          24          23
9690          25          22
9700          26          23
9710          25          21
9720          26          25
9730          26          24
9740          29          21
9750          28          21
9760          24          26
9770          26          27
9780          21          30
9790          21          24
9800          25          25
9810          26          26
9820          23          27
9830          25          25
9840          25          22
9850          19          30
9860          26          23
9870          22          26
9880          25          29
9890          27          22
9900          27          26
9910          26          25
9920          23          28
9930          24          25
9940          26          22
9950          29          24
9960          26          29
9970          25          30
9980          27          27
9990          23          21
10000          21          26
