Time   C(t)   
ps   
0           1           1  5.7122e-10   0.0357527
10    0.648077    0.797914    -0.25327   0.0189735
20     0.62053    0.782096    0.280923   0.0021943
30    0.604191    0.772713    0.507845  0.00146295
40    0.591271    0.765294     1.04077  0.00120189
50    0.580153     0.75891   -0.182424  0.00122401
60    0.566791    0.751237    0.237264  0.00115115
70     0.55713    0.745689    0.542895  0.000855988
80    0.549671    0.741406      1.2665  0.000844806
90    0.540234    0.735987    0.845172  0.000852898
100    0.532613    0.731611     1.34096  0.000670984
110    0.526814    0.728281    -1.06386  0.000534475
120    0.521924    0.725473    0.423397  0.000607941
130    0.514655    0.721299   -0.952297  0.000605822
140    0.509807    0.718515   -0.264488  0.000653252
150     0.50159    0.713797   -0.570454  0.000611493
160    0.497578    0.711492   -0.647784  0.000391808
170    0.493754    0.709297    0.496664  0.000243932
180    0.492699    0.708691   -0.611877  0.000502588
190    0.483702    0.703525   -0.305948  0.000503185
200    0.482635    0.702912   -0.574814  0.000342199
210    0.476858    0.699595    -0.91803  0.000495328
220    0.472729    0.697223     1.59999  0.000336961
230    0.470119    0.695725     1.10196  0.000364333
240    0.465442    0.693039    0.453453  0.000594653
250    0.458226    0.688895     2.36162  0.000385819
260    0.457726    0.688608  -0.0823053  0.000223535
270    0.453755    0.686328   -0.312358  0.000327314
280    0.451179    0.684849    -1.03775  0.000211085
290    0.449534    0.683904   -0.771084  0.000392224
300    0.443335    0.680345      1.4045  0.000439738
310    0.440739    0.678854    -1.34234  0.000283256
320     0.43767    0.677091   -0.731934  0.00047166
330    0.431306    0.673437    -0.69435  0.000398639
340    0.429697    0.672513    -2.14525  8.69572e-05
350    0.429566    0.672438    -1.95476  0.000242038
360    0.424856    0.669733     -1.4973  0.000380512
370    0.421956    0.668068    -1.19085  0.000236298
380     0.42013     0.66702    -0.54405  0.000209819
390     0.41776    0.665658    0.447006  0.000386032
400     0.41241    0.662586    -1.99379  0.000352848
410    0.410703    0.661606     -2.3388  0.000150554
420    0.409399    0.660857    -1.15609  0.000181383
430    0.407075    0.659523    -2.37739  0.000161329
440    0.406172    0.659004    -1.95751  3.60236e-05
450    0.406355    0.659109    -1.95912  0.000134799
460    0.403476    0.657456   -0.813177  0.000339282
470    0.399569    0.655213    -1.11888  7.06509e-05
480    0.402063    0.656645    -1.34968  -5.85675e-05
490     0.40074    0.655885   -0.929769  9.47937e-05
500    0.400167    0.655556   -0.550013  0.000341259
510    0.393915    0.651966     1.32132  0.000485483
520    0.390457    0.649981    0.787091  0.000239889
530    0.389117    0.649211   -0.013733  2.44081e-05
540    0.389969      0.6497     1.81655  1.08674e-05
550      0.3889    0.649086   -0.131704  0.000320125
560    0.383567    0.646024   -0.969813  0.00051329
570    0.378634    0.643191   -0.167275  5.96896e-05
580    0.382373    0.645338   -0.855793  7.75158e-05
590    0.377084    0.642301   -0.205419  0.000287798
600    0.376617    0.642033   -0.167648  0.000254147
610    0.372001    0.639382   -0.357657  0.000157556
620    0.373466    0.640223    0.517329  2.31311e-05
630    0.371538    0.639117   -0.246022  0.000248405
640    0.368498    0.637371   -0.932527  0.000287025
650    0.365798     0.63582    -1.65841  0.000145204
660    0.365594    0.635703   -0.552212  2.38895e-05
670     0.36532    0.635546   -0.400458  0.000292064
680    0.359752    0.632349     -2.9564  0.000407462
690    0.357171    0.630866    -2.15501  5.6009e-05
700    0.358632    0.631705     -2.3473  1.79574e-05
710    0.356812     0.63066    -2.42321  0.000224154
720    0.354149    0.629131    -3.03335  0.000364597
730     0.34952    0.626473    -1.16318  0.000137523
740    0.351399    0.627552    0.285712  0.000173214
750    0.346056    0.624484    -1.54532  0.000169675
760    0.348005    0.625603  -0.0200311  0.000128306
770    0.343489     0.62301    0.552379  0.000202133
780    0.343963    0.623282    -1.96762  2.31102e-05
790    0.343027    0.622745    -1.05217  0.000202984
800    0.339903     0.62095   -0.173723  0.000249231
810    0.338043    0.619882   -0.708251  0.000246309
820    0.334977    0.618122    -2.69264  0.00015122
830    0.335018    0.618146     0.58769  2.06292e-05
840    0.334564    0.617885    -1.12984  0.000247627
850    0.330066    0.615302   -0.366862  0.000404188
860     0.32648    0.613243     -1.6631  0.00033405
870    0.323385    0.611465    -3.26546  0.00016041
880    0.323272    0.611401    -1.39662  3.27021e-05
890    0.322731     0.61109    -1.81687  0.000139755
900    0.320477    0.609796    -2.73294  0.000186349
910    0.319004    0.608949    -1.43692  0.000176094
920    0.316955    0.607773    -1.43644  0.000366072
930    0.311682    0.604745    0.128964  0.000201972
940    0.312916    0.605454    -1.97075  3.78132e-05
950    0.310926    0.604311    -1.97074  5.92068e-05
960    0.311732    0.604774    -1.36161  0.000174548
970    0.307435    0.602306   -0.215742  0.000304151
980    0.305649    0.601281    -1.01709  0.000135671
990    0.304722    0.600748    -1.17089  0.000103623
1000    0.303576     0.60009    -1.32313  2.80261e-05
1010    0.304161    0.600426    -2.96586  0.00022328
1020    0.299111    0.597526    -3.26918  0.000342852
1030    0.297304    0.596489    -3.15576  3.60087e-05
1040     0.29839    0.597113     -2.5848  0.000115995
1050    0.294984    0.595157     -2.0115  0.000264795
1060    0.293094    0.594072    -1.55422  0.000116514
1070    0.292654    0.593818    -1.44035  6.2269e-05
1080    0.291849    0.593356    -1.97477  0.000273609
1090    0.287182    0.590676    -2.01198  0.000427173
1100    0.283306     0.58845    -2.24129  0.000293085
1110     0.28132     0.58731    -1.36291  9.65431e-05
1120    0.281375    0.587342     -2.3181  0.000203004
1130     0.27726    0.584979    -3.46098  0.000232489
1140    0.276725    0.584672    -3.00408  0.000159882
1150    0.274062    0.583143    -5.29257  4.63501e-05
1160    0.275798    0.584139    -3.84372  -0.000144416
1170    0.276951    0.584801    -3.34882  -4.5453e-05
1180    0.276707    0.584661     -2.9672  3.54528e-05
1190    0.276241    0.584394    -2.28044  0.000120293
1200    0.274301     0.58328    -3.38674  0.000138913
1210    0.273463    0.582799    -1.28804  0.000117178
1220    0.271958    0.581934    -2.08954  0.000254281
1230    0.268378    0.579878     -2.4706  0.000243621
1240    0.267085    0.579136    -1.97406  9.22933e-05
1250    0.266532    0.578818    -2.96769  0.000114807
1260    0.264789    0.577818    -2.58495  6.66857e-05
1270    0.265198    0.578052    -3.57821  0.000189765
1280    0.260994    0.575638    -3.23387  6.6945e-05
1290    0.263859    0.577284    -3.88455  6.00576e-05
1300    0.259793    0.574948    -4.22657   0.0002092
1310    0.259675    0.574881    -3.38879  4.16949e-05
1320    0.258959     0.57447    -4.57198  9.03994e-05
1330    0.257867    0.573843    -4.30408  0.000240441
1340     0.25415    0.571708    -3.27336  0.000293371
1350       0.252    0.570474    -3.31198  8.38056e-05
1360    0.252474    0.570746    -3.80829  -1.35928e-05
1370    0.252272     0.57063    -2.85441  -1.36688e-05
1380    0.252747    0.570903    -2.96966  0.000171009
1390    0.248851    0.568666    -3.54081  0.000239079
1400    0.247966    0.568157    -2.96955  -5.10745e-05
1410    0.249873    0.569252    -2.20773  0.000126754
1420     0.24543    0.566701    -3.27533  0.000440937
1430    0.241054    0.564188    -2.05415  0.000241031
1440     0.24061    0.563933    -3.19946  2.17199e-05
1450     0.24062    0.563939    -2.93249  0.000120593
1460    0.238198    0.562548    -2.66489  0.000212035
1470    0.236379    0.561504    -3.04677  3.10391e-06
1480    0.238136    0.562513    -3.35263  2.61784e-05
1490    0.235855    0.561203    -1.86354  6.41786e-05
1500    0.236852    0.561775    -3.46802  0.000125685
1510    0.233342     0.55976    -2.55102  7.2135e-05
1520     0.23541    0.560947    -1.48453  -1.16512e-05
1530    0.233575    0.559893    -2.40012  0.000153025
1540    0.232349     0.55919      -1.827  4.97192e-05
1550     0.23258    0.559322    -1.82734  0.000123007
1560    0.229889    0.557777    -2.93432  0.000177018
1570     0.22904    0.557289    -2.59084  7.96095e-06
1580     0.22973    0.557685    -3.46955  4.28118e-05
1590    0.228184    0.556798    -2.59084  6.2082e-05
1600    0.228488    0.556972   -0.720848  0.000101012
1610    0.226164    0.555638    -1.63644  3.52658e-05
1620    0.227783    0.556567    -1.18065  2.0095e-05
1630    0.225762    0.555407   -0.989341  0.000194602
1640    0.223891    0.554332    -1.10385  8.62412e-05
1650    0.224037    0.554416    -1.59997  9.82508e-05
1660    0.221926    0.553204      -1.104  0.000164557
1670    0.220746    0.552526    0.118045  5.97104e-05
1680    0.220732    0.552518   -0.645307  -6.43507e-06
1690    0.220874      0.5526    -1.52391  0.000173395
1700    0.217264    0.550527    -2.13346  0.000204909
1710    0.216776    0.550247    -2.17208  -0.000229457
1720    0.221853    0.553162   -0.876514  -2.95512e-05
1730    0.217367    0.550586    -2.89889  0.000225155
1740     0.21735    0.550576    -2.59431  0.000115854
1750     0.21505    0.549256    -2.47905  4.90449e-05
1760    0.216369    0.550013    -3.66277  1.78434e-05
1770    0.214693    0.549051    -3.62403  0.000128238
1780    0.213804     0.54854     -3.0131  9.30138e-05
1790    0.212833    0.547983    -4.92246  0.000148619
1800    0.210832    0.546834    -4.31113  0.000133076
1810    0.210172    0.546454    -4.69226  8.59089e-05
1820    0.209114    0.545847    -1.56384  1.06446e-05
1830    0.209959    0.546332    -2.02238  -2.49997e-05
1840    0.209614    0.546134    -1.22223  0.000134076
1850    0.207277    0.544792    -1.83166  0.000158236
1860    0.206449    0.544317     -3.6637  4.69588e-05
1870    0.206338    0.544253    -3.81731  0.000143013
1880    0.203589    0.542674     -2.8999  6.71789e-05
1890    0.204994    0.543482    -4.00863  5.15625e-05
1900    0.202557    0.542082    -2.78711  0.000207929
1910    0.200836    0.541094    -3.85508  3.6642e-06
1920    0.202484     0.54204    -2.44442  6.41733e-05
1930    0.199552    0.540357     -2.1386  6.00107e-05
1940    0.201284    0.541351    -2.21488  0.000133029
1950    0.196892    0.538829   -0.801942   0.0001653
1960    0.197978    0.539452     -3.1697  -7.241e-05
1970     0.19834     0.53966    -4.35289  3.66092e-05
1980    0.197246    0.539032    -3.36027  0.000125757
1990    0.195825    0.538216   -0.804215  0.000109814
2000    0.195049    0.537771    -2.59807  0.000207598
2010    0.191673    0.535832    -2.63528  9.40882e-05
2020    0.193168     0.53669    -1.98897  4.17218e-05
2030    0.190838    0.535353    -2.44646  0.000322866
2040     0.18671    0.532982    -2.82663  0.000213322
2050    0.186572    0.532903    -2.44479  4.65795e-05
2060    0.185779    0.532447    -1.49143  9.8452e-06
2070    0.186375     0.53279    -2.59919  8.36723e-05
2080    0.184105    0.531486    -2.94184  8.36983e-05
2090    0.184701    0.531828    -1.37774  8.82387e-05
2100     0.18234    0.530473    -3.74401  0.000195204
2110    0.180797    0.529587    -1.87361  8.86649e-05
2120    0.180567    0.529455    -4.04964  -4.29571e-05
2130    0.181656     0.53008    -3.36321  6.02141e-05
2140    0.179363    0.528763    -2.02853  0.000134549
2150    0.178965    0.528535     -2.9062  0.000163996
2160    0.176083     0.52688     -3.8971  0.00024715
2170    0.174022    0.525696    -3.13457  9.84378e-05
2180    0.174114    0.525749    -2.29497  0.000140403
2190    0.171214    0.524084    -3.40277  0.000252895
2200    0.169056    0.522845    -3.55493  0.000111937
2210    0.168975    0.522798    -4.31888  0.000166582
2220    0.165725    0.520932    -3.82235  2.48022e-05
2230    0.168479    0.522513    -3.25187  0.00010054
2240    0.163714    0.519777    -3.05944  0.000364137
2250    0.161197    0.518331    -1.11246  0.000226862
2260    0.159177    0.517171    -2.18144  0.000214837
2270      0.1569    0.515864    -2.52551  0.000148126
2280    0.156214     0.51547    -2.86839  0.000106565
2290    0.154769     0.51464     -3.9373  4.77679e-05
2300    0.155259    0.514922    -2.18248  0.000259009
2310    0.149588    0.511666    -3.32674  8.60751e-05
2320    0.153537    0.513933    -3.29017  -4.00141e-05
2330    0.150389    0.512125    -1.26775  1.75908e-06
2340    0.153502    0.513913    -1.91753  8.7025e-05
2350    0.148648    0.511126       -2.26  0.000320354
2360    0.147095    0.510234    -2.22211  4.49501e-05
2370    0.147749    0.510609    -1.61193  1.96651e-05
2380    0.146702    0.510008    -3.67268  0.000113405
2390    0.145481    0.509307    -2.26085  0.000182016
2400    0.143061    0.507918    -2.41428  0.000199516
2410    0.141491    0.507016    -2.26223  0.000195832
2420    0.139145    0.505668    -3.29233  0.000410638
2430    0.133278      0.5023     -2.2981  0.000291269
2440    0.133319    0.502323    -3.17749  2.16685e-05
2450    0.132845    0.502051    -2.75784  0.000120682
2460    0.130906    0.500937    -4.55046  2.18078e-05
2470    0.132408      0.5018    -3.14028  0.00026805
2480    0.125545    0.497859    -3.63506  0.000294124
2490    0.126526    0.498422    -4.59024  -6.79962e-05
2500    0.126905     0.49864    -4.36179  5.38677e-06
2510    0.126418    0.498361    -4.36187  9.64627e-05
2520    0.124975    0.497532    -3.78972  -3.79801e-05
2530    0.127178    0.498797    -3.33256  -5.52394e-05
2540     0.12608    0.498166    -4.51507  0.000105561
2550    0.125067    0.497584    -3.79076  0.000136361
2560    0.123353      0.4966    -5.08734  3.18658e-05
2570    0.124429    0.497218    -4.05818  8.90154e-05
2580    0.121573    0.495578    -4.36317  0.000198448
2590     0.12046    0.494939    -2.75955  7.63048e-05
2600    0.120046    0.494702    -1.65324  9.85231e-05
2610     0.11849    0.493808    -4.17234  -2.00018e-05
2620    0.120447    0.494931    -3.06697  4.18153e-05
2630    0.117654    0.493328    -3.21872  0.000165074
2640    0.117145    0.493036    -3.37185  0.000253985
2650    0.112574    0.490411    -3.86701  0.000249958
2660    0.112146    0.490165    -3.33315  5.17126e-05
2670     0.11154    0.489817    -2.98997  6.95996e-05
2680    0.110754    0.489366    -3.63972  0.000198492
2690     0.10757    0.487537    -3.56306  0.000225513
2700    0.106244    0.486776    -3.75355  0.000150596
2710    0.104558    0.485808    -4.40217  0.000231248
2720    0.101619     0.48412    -3.48658  0.000271979
2730   0.0991183    0.482684    -4.86053  -1.3328e-05
2740    0.101885    0.484273    -4.48021  0.000121278
2750   0.0966927    0.481291    -6.19632  0.000192775
2760   0.0980297    0.482059     -6.1206  6.80815e-05
2770   0.0953311    0.480509    -5.70031  0.000103944
2780   0.0959509    0.480865    -5.09054  9.54766e-05
2790   0.0934215    0.479413    -4.97615  0.000217217
2800   0.0916065     0.47837    -5.51004  0.000127595
2810   0.0908697    0.477947    -5.58655  1.05225e-05
2820   0.0913961     0.47825    -5.51086  1.96908e-05
2830   0.0904758    0.477721    -4.40467  0.000232662
2840   0.0867428    0.475578    -4.78528  0.000165024
2850   0.0871753    0.475826    -4.74807  0.000102143
2860      0.0847    0.474405    -4.97712  0.000143201
2870   0.0843113    0.474181    -7.15188  0.000125511
2880   0.0821897    0.472963    -3.37413  0.000112064
2890   0.0820701    0.472894    -5.09102  -5.65834e-05
2900   0.0833214    0.473613    -4.59617  3.02989e-05
2910   0.0814641    0.472546     -3.7949  0.000222682
2920   0.0788678    0.471055    -5.35986  0.000191125
2930   0.0776416    0.470351     -5.2458  0.000118208
2940   0.0765036    0.469698    -6.92544  0.000192194
2950   0.0737977    0.468144    -6.88615  6.81881e-05
2960   0.0751398    0.468915    -7.95494  -6.98045e-05
2970   0.0751938    0.468946    -9.02381  0.000258096
2980   0.0699779    0.465951    -7.65009  0.000351045
2990   0.0681729    0.464914    -6.88753  0.000190035
3000   0.0661772    0.463768     -7.6885  5.13103e-05
3010   0.0671467    0.464325    -7.61266  9.80645e-06
3020   0.0659811    0.463656    -7.61329  0.000284364
3030   0.0614594    0.461059    -7.53637  -1.80896e-05
3040   0.0663429    0.463863    -7.11803  -9.2181e-05
3050    0.063303    0.462118    -7.38443  0.000267022
3060   0.0610025    0.460797    -5.81955  0.000103967
3070   0.0612237    0.460924    -7.61404  -8.78474e-05
3080   0.0627594    0.461806    -7.95811  0.000128025
3090   0.0586632    0.459453    -7.91885  0.000339642
3100   0.0559666    0.457905    -8.26255  0.000171151
3110   0.0552402    0.457488    -8.26203  0.000138789
3120   0.0531908    0.456311    -7.84234  1.62834e-05
3130   0.0549145    0.457301    -8.60614  -0.000210447
3140   0.0573997    0.458728    -8.56975  0.000125345
3150   0.0524076    0.455861    -8.14946  0.000267492
3160   0.0520499    0.455656    -9.48522  6.4306e-05
3170   0.0511215    0.455123    -9.37005  5.96818e-05
3180   0.0508562     0.45497    -9.75279  0.000136163
3190   0.0483982    0.453559    -8.95073  0.000207997
3200   0.0466963    0.452582    -10.3623  0.000117866
3210   0.0460409    0.452205    -8.53149  0.000190056
3220   0.0428952    0.450399     -8.8743  0.000108939
3230   0.0438621    0.450954     -9.1042  -4.88035e-05
3240   0.0438713    0.450959    -8.87627  7.11542e-05
3250    0.042439    0.450137    -9.52419  7.6035e-05
3260   0.0423505    0.450086    -10.1354  0.000143912
3270   0.0395608    0.448484    -10.9369  0.00028417
3280   0.0366672    0.446822    -9.71609  0.000212429
3290   0.0353122    0.446044     -9.5246  -1.44333e-05
3300   0.0369558    0.446988    -9.22038  -9.37823e-06
3310   0.0354998    0.446152    -9.29581  -7.76622e-05
3320   0.0385091     0.44788     -11.244  0.000160808
3330   0.0322836    0.444305    -10.2121  9.72828e-05
3340   0.0365634    0.446763    -9.98459  -0.000121219
3350    0.034708    0.445697    -10.4812  0.000259118
3360    0.031381    0.443787    -9.56415  0.000127639
3370   0.0321552    0.444232    -10.0609  -7.75428e-05
3380   0.0329319    0.444678    -9.71811  0.000172622
3390   0.0287028    0.442249    -8.30565  0.00019734
3400   0.0289851    0.442411    -9.33682  9.97947e-05
3410   0.0267069    0.441103     -7.9241  0.000124558
3420   0.0264939    0.440981    -8.30576  0.00012015
3430   0.0243039    0.439723    -8.22914  0.000159964
3440   0.0232947    0.439144    -8.80233  0.000195199
3450   0.0203999    0.437481    -9.37441  0.000141078
3460   0.0204731    0.437523    -9.37452  7.21739e-05
3470   0.0189564    0.436652    -9.45163  9.21785e-05
3480   0.0186295    0.436465    -7.92548  -4.20567e-05
3490   0.0197976    0.437135    -10.4823  -7.10767e-06
3500   0.0187717    0.436546    -9.22332  0.000267718
3510   0.0144432    0.434061    -9.60416  0.000133054
3520   0.0161106    0.435018    -9.10912  -1.65248e-05
3530   0.0147737    0.434251     -9.3756  -2.18186e-05
3540    0.016547    0.435269    -8.15524  5.38093e-05
3550   0.0136975    0.433633    -8.95632  -1.18979e-05
3560   0.0167849    0.435405    -9.98716  2.89054e-05
3570   0.0131194    0.433301    -9.49022  0.000114399
3580   0.0144969    0.434092    -10.1394  -0.000153155
3590   0.0161825     0.43506    -9.64447  9.48305e-05
3600   0.0126003    0.433003    -10.5976  0.000196278
3610    0.012257    0.432805    -9.22407  8.97082e-06
3620   0.0124209      0.4329     -8.9571  -3.67863e-05
3630   0.0129927    0.433228    -10.1408  0.000156985
3640  0.00928121    0.431097    -9.18619   0.0003973
3650  0.00504669    0.428665    -9.64298  7.60767e-05
3660  0.00775968    0.430223    -10.0251  -0.00019483
3670   0.0089433    0.430903    -9.26273  0.000184401
3680  0.00407166    0.428105    -7.31582  0.000395341
3690  0.00103648    0.426362     -8.6888  9.79912e-05
3700  0.00211184     0.42698    -8.95669  -0.000169628
3710  0.00442904     0.42831    -9.72094  -0.000159738
3720  0.00530661    0.428814    -9.75953  0.000139806
3730  0.00163291    0.426705    -8.91974  0.000165816
3740  0.00199029     0.42691     -9.7212  4.72388e-05
3750  0.000688134    0.426162    -9.98794  3.16508e-05
3760  0.00135727    0.426546    -9.94984  3.19492e-05
3770  4.91487e-05    0.425795    -9.26341  8.40458e-05
3780  -0.000323644    0.425581    -9.87463  6.34755e-05
3790  -0.00122036    0.425066    -9.75975  5.84153e-05
3800  -0.00149195     0.42491    -8.99748  0.000147763
3810  -0.00417561    0.423369    -9.34088  0.000316083
3820  -0.0078136     0.42128    -8.46199  5.93521e-05
3830  -0.00536266    0.422688    -8.88309  0.000117962
3840  -0.0101728    0.419925    -7.85203  0.000249654
3850  -0.0103557     0.41982    -8.42537  5.0005e-05
3860  -0.0111729    0.419351    -6.97544  0.000103049
3870  -0.0124167    0.418637    -8.23424  0.000119278
3880  -0.0135585    0.417981    -8.69278  0.000156861
3890  -0.0155539    0.416835    -6.97462  0.000162619
3900  -0.0168109    0.416114    -7.66232  -1.97734e-06
3910  -0.0155144    0.416858    -7.70068  -0.000183246
3920   -0.013146    0.418218    -6.48013  8.72682e-06
3930  -0.0156889    0.416758     -6.4037  0.000195764
3940  -0.0170612     0.41597    -8.00591  4.62995e-05
3950  -0.0166149    0.416226    -6.86183  -6.08313e-05
3960  -0.0158446    0.416669    -8.46601  0.000138089
3970  -0.0193767     0.41464    -8.00646  0.000175928
3980  -0.0193632    0.414648    -7.51075  0.000225417
3990   -0.023885    0.412051    -7.89118  0.000160885
4000  -0.0225809      0.4128    -8.57921  -6.56319e-05
4010  -0.0225724    0.412805    -7.93018  0.000281357
4020   -0.028208    0.409569    -7.51004  0.000135076
4030  -0.0252739    0.411254    -6.36623  0.000163436
4040  -0.0314768    0.407692    -7.39502  0.000315922
4050  -0.0315923    0.407626     -7.7395  -0.000130454
4060  -0.0288677     0.40919    -6.17532  -5.9513e-05
4070  -0.0304021    0.408309    -7.43435  0.000181126
4080  -0.0324902     0.40711    -8.23573  3.8909e-05
4090  -0.0311803    0.407862     -8.0838  -3.21776e-05
4100  -0.0318466     0.40748    -7.62675  0.000187933
4110  -0.0349389    0.405704    -7.77891  0.000182849
4120  -0.0355036     0.40538    -8.42727  0.000150521
4130  -0.0379493    0.403975    -7.77876  0.000222851
4140  -0.0399606     0.40282     -7.9687  4.05982e-05
4150  -0.0387613    0.403509    -8.69495  -1.45473e-05
4160  -0.0396697    0.402987    -7.77846    0.000219
4170  -0.0431413    0.400994    -7.73968  0.000147041
4180  -0.0426105    0.401299    -8.61802  -2.52465e-05
4190  -0.0426364    0.401284    -8.23611  -3.00221e-06
4200  -0.0425505    0.401333    -7.35956  -4.78303e-05
4210  -0.0416798    0.401833    -7.66548  4.19008e-05
4220  -0.0433885    0.400852    -8.35147  0.000283643
4230  -0.0473526    0.398576    -8.31303  0.000228111
4240  -0.0479507    0.398232    -8.73357  5.98866e-05
4250  -0.0485503    0.397888    -8.50434  -3.60493e-05
4260  -0.0472297    0.398646     -8.5816  7.16031e-05
4270  -0.0499824    0.397065    -9.15352  0.000133934
4280  -0.0499084    0.397108    -9.49693  0.000123289
4290  -0.0524482     0.39565    -7.58842  1.53052e-05
4300  -0.0502145    0.396932    -8.96322  -7.04527e-06
4310  -0.0523073     0.39573    -7.51302  0.000375331
4320  -0.0577211    0.392622    -9.07619  0.000107382
4330  -0.0544549    0.394497    -8.16176  -8.0662e-05
4340  -0.0561079    0.393548    -7.39826  7.36685e-05
4350  -0.0559283    0.393651    -7.97089  3.95784e-05
4360  -0.0568994    0.393093    -8.31396  6.26944e-05
4370  -0.0571822    0.392931     -7.8178  -6.4075e-05
4380  -0.0556179    0.393829    -8.77343  -6.29015e-06
4390  -0.0570564    0.393003    -8.27742  0.000213623
4400  -0.0598904    0.391376    -8.88682  0.000254888
4410  -0.0621541    0.390076    -7.74259  0.000162813
4420  -0.0631467    0.389506     -8.0857  -2.29161e-05
4430  -0.0616958    0.390339     -8.2766  1.2238e-05
4440  -0.0633914    0.389366    -9.11698  0.000251727
4450  -0.0667304    0.387448    -7.28487  7.6754e-05
4460  -0.0649265    0.388484    -8.39222  1.88239e-05
4470  -0.0671069    0.387232    -7.55236  0.000236036
4480  -0.0696472    0.385773    -7.05672  0.000177966
4490  -0.0706662    0.385188    -7.55311  2.53528e-05
4500  -0.0701543    0.385482    -7.85836  6.69423e-05
4510   -0.072005    0.384419    -6.82835  0.000250552
4520  -0.0751653    0.382605     -7.0952  0.000180161
4530  -0.0756082     0.38235    -7.24815  0.000204852
4540  -0.0792624    0.380252    -7.51451  0.000264835
4550  -0.0809049    0.379309    -8.27872  0.000152672
4560  -0.0823158    0.378499    -6.71421  0.00010547
4570  -0.0830143    0.378097    -6.67611  0.000117858
4580   -0.084673    0.377145    -7.32469  4.24534e-06
4590  -0.0830992    0.378049    -7.55456  0.000238927
4600  -0.0894515    0.374401    -8.35475  0.000329379
4610  -0.0896868    0.374266    -7.89789  0.000150243
4620  -0.0924564    0.372676    -7.70713  8.40794e-05
4630  -0.0913684      0.3733    -8.58544  -1.81645e-05
4640  -0.0920931    0.372884    -8.89051  0.000193886
4650  -0.0952461    0.371074     -8.1269  4.85282e-05
4660  -0.0930636    0.372327    -8.01314  -6.64312e-05
4670  -0.0939175    0.371836    -8.35672  6.11272e-05
4680  -0.0942862    0.371625    -7.25027  0.000171374
4690   -0.097345    0.369868    -7.59274  0.000263612
4700  -0.0995584    0.368597    -8.08935  4.38705e-05
4710  -0.0982224    0.369364    -7.55448  -0.000133864
4720  -0.0968812    0.370135    -7.97518  -3.58466e-05
4730  -0.0975055    0.369776    -7.24994  1.93611e-05
4740  -0.0972684    0.369912     -7.7081  9.3678e-05
4750   -0.099379      0.3687    -7.51716  0.000137162
4760   -0.100012    0.368337    -7.09773  5.71493e-05
4770   -0.100522    0.368044    -5.72424  0.000125749
4780   -0.102527    0.366893    -6.14367  0.000157273
4790   -0.103667    0.366238    -6.48632  -1.67634e-05
4800   -0.102191    0.367085    -5.91451  -0.000172908
4810   -0.100209    0.368224    -5.64803  1.44124e-05
4820    -0.10248     0.36692    -5.26655  3.28701e-05
4830   -0.100867    0.367846    -5.60958  1.45268e-05
4840    -0.10277    0.366753    -5.60936  9.6162e-05
4850    -0.10279    0.366742    -6.02953  -4.32581e-06
4860   -0.102684    0.366803    -6.64065  7.79215e-05
4870   -0.104348    0.365847    -5.57208  0.000211147
4880   -0.106907    0.364378    -6.33502  9.7584e-05
4890     -0.1063    0.364726    -5.61033  0.000110997
4900   -0.109126    0.363103    -5.61059  0.00014934
4910   -0.109287    0.363011    -6.25944  -0.000150026
4920   -0.106126    0.364826    -5.15317  4.17218e-05
4930   -0.110121    0.362532    -5.22878  7.96579e-05
4940   -0.107719    0.363911    -5.07707  -0.000195702
4950   -0.106207    0.364779    -4.35153  -4.84895e-05
4960   -0.106749    0.364468      -5.916  4.78797e-05
4970   -0.107165    0.364229    -5.68733  4.81028e-05
4980   -0.107711    0.363916    -5.45832  -4.23916e-05
4990   -0.106317    0.364716    -4.39015  -0.000132886
