Time   Number   
ps   
0           6          34
10          15          25
20          24          21
30          22          26
40          20          19
50          25          20
60          22          26
70          25          24
80          24          23
90          24          23
100          20          21
110          28          20
120          32          17
130          25          21
140          24          23
150          24          21
160          26          18
170          27          21
180          25          22
190          27          22
200          22          30
210          27          25
220          27          29
230          27          26
240          33          24
250          25          29
260          24          32
270          28          26
280          28          23
290          31          21
300          28          22
310          29          22
320          28          28
330          28          24
340          28          22
350          29          24
360          23          29
370          28          20
380          26          29
390          23          29
400          25          24
410          28          26
420          23          28
430          23          20
440          25          24
450          26          24
460          24          24
470          30          22
480          23          27
490          28          23
500          31          15
510          27          27
520          27          19
530          28          23
540          27          26
550          27          28
560          26          25
570          24          25
580          20          28
590          25          22
600          23          19
610          24          27
620          26          25
630          26          23
640          27          21
650          28          19
660          23          26
670          30          24
680          25          27
690          26          26
700          25          27
710          20          31
720          27          27
730          30          25
740          27          29
750          25          26
760          25          25
770          27          30
780          26          23
790          23          27
800          21          28
810          24          24
820          23          24
830          22          30
840          27          24
850          24          23
860          26          25
870          23          27
880          25          26
890          24          31
900          26          27
910          24          26
920          24          28
930          25          25
940          29          24
950          26          24
960          27          22
970          22          28
980          23          29
990          22          27
1000          27          22
1010          23          26
1020          27          22
1030          24          24
1040          23          29
1050          26          26
1060          25          18
1070          26          21
1080          27          18
1090          28          25
1100          21          24
1110          26          24
1120          22          27
1130          29          21
1140          27          24
1150          26          25
1160          22          25
1170          25          24
1180          22          25
1190          28          25
1200          23          29
1210          26          20
1220          25          25
1230          27          21
1240          22          25
1250          24          23
1260          25          23
1270          26          22
1280          21          28
1290          22          26
1300          26          20
1310          23          25
1320          23          23
1330          23          29
1340          27          21
1350          25          20
1360          24          28
1370          20          27
1380          22          25
1390          20          27
1400          22          28
1410          21          20
1420          21          28
1430          22          26
1440          18          26
1450          24          26
1460          21          28
1470          23          23
1480          27          18
1490          25          24
1500          22          24
1510          23          19
1520          20          28
1530          25          27
1540          21          32
1550          22          31
1560          19          32
1570          24          28
1580          25          27
1590          17          30
1600          22          24
1610          20          25
1620          22          21
1630          19          27
1640          23          21
1650          22          26
1660          24          25
1670          26          23
1680          24          22
1690          25          23
1700          23          26
1710          25          28
1720          27          27
1730          23          28
1740          31          24
1750          24          28
1760          23          29
1770          23          31
1780          23          27
1790          24          28
1800          20          27
1810          27          31
1820          27          30
1830          23          34
1840          21          31
1850          24          27
1860          24          27
1870          28          24
1880          25          27
1890          24          27
1900          23          33
1910          23          27
1920          20          27
1930          24          25
1940          23          25
1950          21          24
1960          26          25
1970          23          26
1980          26          24
1990          27          29
2000          23          26
2010          29          20
2020          22          21
2030          23          24
2040          21          31
2050          22          28
2060          25          30
2070          26          22
2080          27          27
2090          26          33
2100          27          29
2110          23          30
2120          23          30
2130          25          28
2140          26          23
2150          25          24
2160          27          23
2170          28          26
2180          26          20
2190          25          31
2200          22          30
2210          27          24
2220          27          25
2230          23          29
2240          23          31
2250          27          24
2260          24          21
2270          28          24
2280          25          25
2290          27          22
2300          28          26
2310          29          23
2320          27          27
2330          25          22
2340          28          23
2350          26          27
2360          27          27
2370          30          25
2380          25          30
2390          26          33
2400          28          31
2410          24          37
2420          26          29
2430          23          32
2440          27          28
2450          25          33
2460          27          32
2470          28          28
2480          26          30
2490          25          27
2500          25          25
2510          26          25
2520          24          26
2530          27          25
2540          25          20
2550          27          22
2560          26          24
2570          26          24
2580          26          25
2590          24          30
2600          30          25
2610          23          29
2620          28          28
2630          21          23
2640          24          25
2650          27          23
2660          24          28
2670          23          31
2680          24          28
2690          24          31
2700          27          25
2710          31          32
2720          28          30
2730          26          31
2740          26          32
2750          30          26
2760          31          28
2770          27          30
2780          27          21
2790          26          29
2800          21          27
2810          26          26
2820          25          30
2830          25          22
2840          22          27
2850          24          23
2860          26          27
2870          23          25
2880          27          25
2890          25          20
2900          25          18
2910          25          26
2920          23          29
2930          32          19
2940          29          24
2950          27          27
2960          21          28
2970          27          23
2980          28          27
2990          24          25
3000          22          30
3010          24          25
3020          27          24
3030          29          28
3040          30          19
3050          26          30
3060          27          24
3070          25          28
3080          29          23
3090          23          27
3100          24          27
3110          27          23
3120          28          21
3130          25          27
3140          30          17
3150          22          29
3160          27          25
3170          26          26
3180          26          21
3190          29          22
3200          23          33
3210          25          26
3220          23          28
3230          28          26
3240          26          30
3250          29          25
3260          23          31
3270          30          22
3280          29          25
3290          26          25
3300          31          27
3310          26          27
3320          27          33
3330          21          27
3340          28          33
3350          26          30
3360          31          28
3370          31          25
3380          23          35
3390          26          30
3400          23          38
3410          29          29
3420          22          35
3430          26          29
3440          24          32
3450          25          29
3460          26          35
3470          26          29
3480          27          31
3490          24          25
3500          24          27
3510          20          30
3520          23          34
3530          22          32
3540          26          28
3550          22          39
3560          23          30
3570          25          31
3580          22          28
3590          24          31
3600          23          29
3610          26          29
3620          21          33
3630          22          31
3640          29          28
3650          29          27
3660          25          31
3670          25          33
3680          31          26
3690          29          29
3700          25          24
3710          27          31
3720          27          26
3730          27          25
3740          25          34
3750          23          30
3760          30          30
3770          27          31
3780          23          37
3790          28          28
3800          26          30
3810          27          31
3820          32          22
3830          24          32
3840          32          21
3850          29          22
3860          30          29
3870          29          28
3880          30          31
3890          27          25
3900          26          27
3910          27          29
3920          29          29
3930          24          25
3940          28          27
3950          28          29
3960          27          24
3970          25          28
3980          28          28
3990          31          24
4000          28          26
4010          28          26
4020          27          32
4030          29          28
4040          30          23
4050          29          22
4060          29          31
4070          28          25
4080          31          23
4090          27          25
4100          30          27
4110          30          31
4120          32          24
4130          31          23
4140          31          23
4150          30          32
4160          30          23
4170          26          26
4180          25          27
4190          29          24
4200          29          27
4210          29          25
4220          29          26
4230          28          27
4240          28          27
4250          29          20
4260          29          21
4270          23          27
4280          26          28
4290          29          32
4300          23          29
4310          29          27
4320          30          23
4330          31          26
4340          28          29
4350          27          22
4360          28          26
4370          28          28
4380          28          21
4390          25          29
4400          25          28
4410          29          28
4420          26          28
4430          26          28
4440          26          33
4450          29          28
4460          31          27
4470          25          31
4480          23          32
4490          24          29
4500          29          22
4510          26          23
4520          28          31
4530          27          26
4540          25          30
4550          27          27
4560          25          28
4570          27          28
4580          28          24
4590          28          27
4600          28          30
4610          29          26
4620          31          25
4630          25          34
4640          30          22
4650          21          26
4660          29          33
4670          27          30
4680          27          28
4690          28          30
4700          28          24
4710          31          30
4720          32          25
4730          29          29
4740          27          32
4750          27          29
4760          33          29
4770          29          26
4780          30          30
4790          28          33
4800          29          25
4810          30          23
4820          29          28
4830          30          25
4840          25          36
4850          31          25
4860          28          28
4870          27          26
4880          26          37
4890          32          25
4900          29          30
4910          27          31
4920          28          29
4930          29          30
4940          27          30
4950          30          28
4960          27          29
4970          27          25
4980          27          28
4990          28          31
5000          29          32
5010          31          30
5020          27          31
5030          27          30
5040          30          23
5050          28          29
5060          28          27
5070          25          28
5080          24          22
5090          28          23
5100          29          27
5110          25          28
5120          29          31
5130          27          34
5140          23          35
5150          30          31
5160          27          34
5170          31          29
5180          26          30
5190          26          35
5200          30          27
5210          27          30
5220          28          28
5230          26          29
5240          29          27
5250          28          31
5260          30          30
5270          27          33
5280          31          26
5290          31          31
5300          29          28
5310          26          29
5320          27          27
5330          28          25
5340          25          28
5350          29          24
5360          27          26
5370          27          24
5380          24          28
5390          24          38
5400          24          32
5410          29          34
5420          27          25
5430          26          29
5440          25          33
5450          27          24
5460          26          34
5470          27          30
5480          27          31
5490          28          25
5500          26          31
5510          24          30
5520          26          26
5530          27          26
5540          27          28
5550          24          29
5560          27          30
5570          31          26
5580          27          31
5590          29          31
5600          25          29
5610          29          34
5620          27          33
5630          26          32
5640          28          32
5650          28          33
5660          26          35
5670          29          33
5680          28          26
5690          27          28
5700          26          33
5710          25          31
5720          26          26
5730          26          29
5740          30          22
5750          26          28
5760          31          25
5770          25          27
5780          25          24
5790          28          24
5800          26          28
5810          29          28
5820          25          30
5830          26          31
5840          26          27
5850          26          29
5860          26          24
5870          27          26
5880          28          30
5890          24          29
5900          28          28
5910          23          33
5920          29          28
5930          30          27
5940          28          25
5950          31          27
5960          27          32
5970          29          33
5980          27          31
5990          27          31
6000          26          25
6010          29          26
6020          26          33
6030          30          21
6040          25          35
6050          31          26
6060          27          25
6070          29          28
6080          26          29
6090          25          37
6100          33          27
6110          25          29
6120          28          34
6130          32          24
6140          31          24
6150          29          27
6160          32          24
6170          28          31
6180          31          23
6190          27          25
6200          26          27
6210          27          30
6220          30          29
6230          28          28
6240          25          28
6250          27          24
6260          28          29
6270          24          31
6280          29          27
6290          27          29
6300          31          28
6310          28          30
6320          28          32
6330          26          35
6340          30          23
6350          31          21
6360          31          23
6370          32          27
6380          28          29
6390          32          30
6400          28          25
6410          28          34
6420          29          30
6430          28          28
6440          31          23
6450          29          26
6460          27          27
6470          30          28
6480          29          36
6490          25          33
6500          26          24
6510          25          29
6520          25          28
6530          23          27
6540          23          33
6550          25          30
6560          27          25
6570          27          28
6580          27          27
6590          28          32
6600          27          30
6610          27          34
6620          30          24
6630          25          34
6640          27          33
6650          31          24
6660          28          27
6670          29          27
6680          27          29
6690          32          29
6700          28          26
6710          28          25
6720          27          31
6730          28          32
6740          30          30
6750          30          25
6760          29          25
6770          26          28
6780          25          35
6790          28          26
6800          24          26
6810          24          20
6820          24          27
6830          25          29
6840          24          31
6850          28          23
6860          24          30
6870          30          26
6880          24          34
6890          29          29
6900          27          26
6910          26          34
6920          22          35
6930          25          37
6940          25          26
6950          26          29
6960          23          32
6970          26          33
6980          25          28
6990          29          26
7000          26          31
7010          32          26
7020          26          33
7030          28          31
7040          24          35
7050          20          38
7060          27          26
7070          29          28
7080          28          32
7090          29          23
7100          26          31
7110          27          31
7120          29          27
7130          29          26
7140          27          25
7150          25          27
7160          28          28
7170          29          26
7180          28          21
7190          28          23
7200          26          30
7210          30          27
7220          26          26
7230          28          25
7240          27          27
7250          27          24
7260          29          27
7270          28          28
7280          29          24
7290          31          26
7300          27          29
7310          28          30
7320          33          24
7330          30          32
7340          30          26
7350          27          27
7360          29          28
7370          27          26
7380          27          29
7390          28          20
7400          31          21
7410          33          29
7420          29          24
7430          28          26
7440          29          27
7450          27          31
7460          31          29
7470          26          26
7480          29          25
7490          24          32
7500          26          27
7510          27          26
7520          26          28
7530          29          30
7540          30          24
7550          31          27
7560          27          25
7570          29          28
7580          30          28
7590          30          27
7600          28          27
7610          30          31
7620          26          32
7630          31          24
7640          27          37
7650          31          23
7660          27          24
7670          27          26
7680          24          33
7690          24          32
7700          21          34
7710          31          24
7720          23          21
7730          25          29
7740          22          35
7750          29          24
7760          31          28
7770          27          28
7780          29          24
7790          26          22
7800          31          24
7810          28          30
7820          30          27
7830          24          29
7840          28          28
7850          26          28
7860          30          28
7870          27          31
7880          24          28
7890          28          31
7900          30          24
7910          29          27
7920          26          31
7930          29          26
7940          32          20
7950          30          22
7960          27          27
7970          24          32
7980          27          28
7990          29          28
8000          30          24
8010          23          34
8020          29          22
8030          27          30
8040          28          26
8050          29          29
8060          27          24
8070          27          31
8080          28          27
8090          29          30
8100          29          29
8110          28          30
8120          27          31
8130          25          32
8140          30          26
8150          26          32
8160          25          32
8170          27          28
8180          28          26
8190          28          36
8200          28          28
8210          29          34
8220          25          33
8230          29          30
8240          27          29
8250          28          26
8260          28          22
8270          21          32
8280          27          29
8290          30          23
8300          31          27
8310          32          23
8320          26          24
8330          30          21
8340          31          23
8350          29          29
8360          28          24
8370          29          25
8380          28          28
8390          29          27
8400          26          39
8410          31          29
8420          28          23
8430          28          28
8440          24          27
8450          28          26
8460          30          26
8470          28          29
8480          31          26
8490          29          29
8500          29          30
8510          26          31
8520          31          31
8530          29          32
8540          32          26
8550          28          27
8560          29          27
8570          31          27
8580          29          30
8590          31          28
8600          32          29
8610          27          28
8620          28          26
8630          26          34
8640          32          21
8650          30          20
8660          31          24
8670          29          28
8680          31          33
8690          32          20
8700          32          26
8710          33          23
8720          27          27
8730          32          31
8740          34          29
8750          34          26
8760          33          28
8770          32          26
8780          30          30
8790          33          28
8800          33          29
8810          29          28
8820          30          23
8830          34          25
8840          29          26
8850          32          28
8860          30          27
8870          31          27
8880          33          22
8890          28          28
8900          26          30
8910          28          26
8920          31          28
8930          28          28
8940          34          26
8950          33          28
8960          31          31
8970          32          25
8980          30          26
8990          28          25
9000          36          21
9010          32          24
9020          31          25
9030          29          30
9040          32          24
9050          30          27
9060          30          26
9070          31          25
9080          30          25
9090          31          21
9100          27          33
9110          26          28
9120          25          25
9130          28          31
9140          29          32
9150          31          28
9160          30          30
9170          30          26
9180          31          28
9190          29          33
9200          27          28
9210          32          22
9220          28          27
9230          30          29
9240          27          29
9250          28          28
9260          28          25
9270          29          26
9280          23          26
9290          29          25
9300          27          26
9310          26          26
9320          25          26
9330          28          25
9340          28          22
9350          24          28
9360          28          30
9370          26          28
9380          27          26
9390          28          28
9400          27          27
9410          25          27
9420          25          27
9430          26          25
9440          22          27
9450          25          24
9460          28          19
9470          26          27
9480          30          21
9490          27          22
9500          22          28
9510          23          21
9520          23          22
9530          30          21
9540          29          22
9550          24          24
9560          31          22
9570          26          26
9580          32          24
9590          26          32
9600          29          27
9610          30          20
9620          27          27
9630          26          31
9640          29          22
9650          27          22
9660          28          27
9670          27          29
9680          24          28
9690          29          24
9700          24          29
9710          27          25
9720          24          26
9730          29          26
9740          33          19
9750          24          27
9760          25          27
9770          29          24
9780          28          23
9790          32          22
9800          28          24
9810          27          31
9820          25          20
9830          28          19
9840          29          24
9850          22          32
9860          24          32
9870          30          25
9880          24          30
9890          28          22
9900          29          27
9910          26          18
9920          25          27
9930          27          22
9940          22          29
9950          23          28
9960          28          25
9970          24          37
9980          27          23
9990          26          30
10000          24          30
