Time   C(t)   
ps   
0           1           1  3.52511e-09   0.0591787
10    0.413519    0.795029    -1.35814   0.0302611
20    0.394778    0.788479   -0.672642  0.00134342
30     0.38665    0.785638   -0.674609  0.00108978
40    0.372983    0.780862      0.9289   0.0010596
50    0.365458    0.778232    -1.45259  0.000412184
60    0.364739    0.777981   -0.126867  1.14292e-06
70    0.365436    0.778224    0.650268  0.000916727
80    0.346405    0.771573    -1.63748  0.00110475
90     0.34334    0.770502    -1.77501  0.000532854
100    0.335748    0.767848     -1.8667  0.000650053
110    0.330339    0.765958   -0.357823  0.000392528
120    0.327897    0.765104    -0.54097  0.000289868
130    0.324542    0.763932    -3.33362  0.000711969
140    0.313658    0.760128    -2.05069  0.000667568
150    0.311191    0.759266   -0.267747  0.000214411
160    0.309369    0.758629   -0.542803  0.000357993
170    0.304031    0.756763    -1.22848  0.000195786
180    0.305454    0.757261   -0.681001  0.000581186
190    0.292407    0.752701   -0.449017  -3.83824e-05
200    0.306221    0.757529    -1.23102  0.000171953
210    0.288968    0.751499    -1.27356  0.000798488
220    0.290252    0.751948   -0.543876  0.000133367
230    0.286301    0.750567     -1.8705  4.16815e-05
240    0.289418    0.751656    -1.78064  8.14781e-05
250    0.284671    0.749997     -2.7416  0.000475174
260    0.279914    0.748335    -2.10051  0.000285554
270     0.27896    0.748001    -1.59736  0.000431089
280    0.271293    0.745322    -2.28214  -2.93851e-05
290    0.279548    0.748207    -1.59982  -0.000272575
300    0.276744    0.747227    -2.42253  0.000452244
310    0.270503    0.745046   -0.684041  0.000486048
320    0.267023    0.743829   -0.681538   0.0004012
330    0.262479    0.742241    -1.55161  -6.80655e-05
340    0.268385    0.744305   -0.914104  0.000323372
350    0.256011    0.739981   -0.270474  0.000614998
360    0.256085    0.740006    -1.14184  -0.000140136
370    0.258814     0.74096    -0.73118  0.000152169
380    0.253041    0.738943  -0.0433173  0.000604568
390    0.246723    0.736735    0.459164  0.000112867
400    0.250784    0.738154   -0.182096  -4.64223e-05
410    0.247651    0.737059    -1.18889  0.00018007
420    0.247182    0.736895     0.59629  -9.33915e-05
430    0.249519    0.737712    -1.23666  0.000301244
440    0.241158     0.73479    -1.55572  0.000428531
450    0.240948    0.734716   -0.731359  3.43814e-05
460     0.24047    0.734549    -1.09868  -0.000388341
470    0.248715    0.737431    -2.24488  9.49346e-05
480    0.238571    0.733886    -1.55545  0.000490967
490    0.238896    0.733999   -0.275347  3.47912e-05
500    0.237875    0.733642   -0.641327  -0.000126971
510    0.241435    0.734887   -0.506705  -0.000234901
520    0.242573    0.735284     1.32499  7.51346e-05
530    0.239933    0.734361   -0.962896  0.000636187
540     0.22985    0.730838    0.366093  0.000224268
550    0.235447    0.732794      1.3719  -0.000275747
560    0.235365    0.732765     1.64616  0.000571175
570    0.224024    0.728801   0.0461779  0.00017122
580     0.23194    0.731568    0.226285  -0.000405132
590    0.232127    0.731633   0.0887126  0.000117455
600    0.229591    0.730747  -0.00163164  0.000349176
610    0.225143    0.729193    -1.14537  0.000138457
620    0.226822    0.729779   -0.139383  7.08357e-05
630    0.223726    0.728697    0.592758  0.000398702
640    0.218848    0.726992   -0.230174  0.000180531
650    0.220116    0.727436    0.225704  -0.000140563
660    0.221659    0.727975    0.179772  0.000434926
670    0.211417    0.724395    0.640344  0.000346079
680    0.214738    0.725556    0.639048  -0.000682832
690    0.225074    0.729168   -0.828185  -0.000292043
700    0.220579    0.727597     1.27803  0.000567099
710    0.213732    0.725204   -0.873044  0.000258096
720    0.215417    0.725793    0.178878  0.000231507
730    0.209102    0.723586    0.867233  -6.53952e-05
740    0.216725     0.72625    -1.37861  -0.000382867
750    0.216759    0.726262    -1.79106  0.000391087
760    0.208903    0.723517   -0.506929  0.000169812
770    0.213363    0.725075    -2.98118  0.000115383
780    0.206595     0.72271    0.316451  0.000378842
790    0.205786    0.722427   -0.600358  8.80189e-05
800    0.204835    0.722095   0.0410368  -9.27001e-05
810     0.20764    0.723075    0.634309  0.000102369
820    0.202787    0.721379    -2.61542  0.000513667
830    0.197367    0.719485   -0.280309  0.000123774
840    0.200312    0.720514    -1.24207  0.000159418
850    0.194178    0.718371    0.314796  0.000460149
860    0.191109    0.717298   -0.874162  0.000265224
870    0.188874    0.716517    0.772016  0.000209703
880    0.186915    0.715832    0.268954  -5.65447e-05
890    0.190005    0.716912   -0.144345  7.71381e-05
900    0.185372    0.715293   -0.189607  0.000491948
910    0.180166    0.713473    0.223737  0.000204245
920    0.181287    0.713865     0.63337  -0.000344963
930    0.187065    0.715885   -0.925011  -0.000232488
940    0.185937     0.71549     1.95959  0.000112842
950    0.184808    0.715096    -1.51967  0.000261652
960    0.180704    0.713661    0.313142  0.000304629
970    0.178715    0.712966     1.27387  8.55885e-05
980    0.178992    0.713063     0.40219  0.000213617
990    0.174443    0.711473    0.402861  0.000597618
1000     0.16704    0.708886     1.04542  0.000228889
1010    0.169865    0.709873     1.73091  -7.63446e-05
1020    0.168567    0.709419     1.86777  0.00018708
1030    0.166124    0.708566     3.65313  0.00030879
1040    0.162391    0.707261    0.860841  0.000209345
1050    0.161937    0.707102     2.37003  0.000116994
1060    0.160051    0.706443     2.46153  0.000231814
1070    0.157301    0.705482     1.13406  0.000519057
1080     0.14967    0.702815     1.13505  0.000548621
1090    0.146328    0.701647     1.91384  -0.000283439
1100    0.155339    0.704796     2.36953  -0.000492033
1110    0.156169    0.705087     2.59732  0.000140189
1120    0.152535    0.703816     2.32275  0.000515228
1130    0.145864    0.701485     1.82152  3.98137e-05
1140    0.151739    0.703538     3.19345  0.000156203
1150     0.14274    0.700393     3.10262  0.000322093
1160    0.145297    0.701287      2.4601  -1.69359e-05
1170    0.143079    0.700512     1.72859  0.000229307
1180    0.140711    0.699684   -0.194703  -0.000496066
1190       0.153    0.703979     2.18317  0.000164926
1200    0.137412    0.698531     2.09479  0.000614792
1210    0.140704    0.699682     1.26931  -0.000227619
1220    0.141964    0.700122     1.63467  4.88527e-05
1230    0.139727     0.69934    0.400089  0.000180157
1240    0.138361    0.698863     2.50541  0.000633766
1250    0.127052     0.69491     2.50823  2.00048e-05
1260    0.137961    0.698723     1.35934  -0.000257038
1270    0.132193    0.696707     1.08724  0.000291446
1280    0.132132    0.696686     3.14604  -8.20495e-05
1290    0.133834    0.697281     3.51041  7.95938e-05
1300     0.13054     0.69613     2.32168  0.000108945
1310    0.131655    0.696519     3.14511  -0.000133657
1320    0.133214    0.697064     4.79164  0.00033815
1330    0.124892    0.694155     2.87121  0.000197978
1340    0.129254     0.69568     3.74101  -0.000111324
1350    0.127118    0.694934     2.13742  0.000458009
1360    0.120094    0.692479     3.14591  8.08381e-05
1370    0.125502    0.694369     2.31976  -3.69485e-05
1380    0.120833    0.692737     2.32047  0.000214888
1390    0.121204    0.692867     2.77743  -0.000260219
1400    0.126037    0.694556     2.82175  0.000416942
1410    0.112865    0.689952     3.83172  0.000543563
1420    0.115166    0.690756     2.41131  -9.60089e-05
1430    0.114785    0.690623     1.90807  -0.000313071
1440    0.121427    0.692945     2.36413  -8.15209e-05
1450    0.116416    0.691193     2.91415  -2.24948e-05
1460    0.121877    0.693102     2.73002  -0.000149381
1470    0.119403    0.692237     1.99761  0.00037526
1480    0.114372    0.690479     2.18183  0.000150524
1490    0.116393    0.691185     1.67836  0.000256646
1500    0.109239    0.688685     2.36529  -0.00021036
1510      0.1206    0.692655     1.99622  -6.16536e-06
1520    0.109362    0.688728     1.54003  0.000717393
1530    0.106252    0.687641     1.77054  4.67893e-05
1540    0.108427    0.688401    0.579035  -0.000217727
1550    0.110607    0.689163     1.72246  -0.000362188
1560     0.11567    0.690933     1.21721  0.000168201
1570    0.107243    0.687987   -0.245105  0.000357643
1580    0.108517    0.688433     1.31109  0.000108126
1590     0.10508    0.687231     2.36395  0.000252758
1600    0.103462    0.686666     1.63158  -0.000188658
1610    0.108853     0.68855     1.90516  -0.000272609
1620    0.108914    0.688571     2.31591  0.000383558
1630    0.101182    0.685869     2.59325  0.00027689
1640    0.103377    0.686636     2.45523  -5.88894e-05
1650     0.10236    0.686281     2.17879  0.000155504
1660    0.100267    0.685549     1.12758  3.29748e-05
1670      0.1017     0.68605     1.21815  0.000202404
1680   0.0962185    0.684134    0.761109  -9.76887e-05
1690    0.103654    0.686733     1.40018  -0.000181913
1700   0.0998568    0.685406   -0.337416  0.000133265
1710    0.100989    0.685802    0.943318  7.97898e-05
1720    0.098261    0.684848     1.95109  -2.07301e-05
1730    0.101403    0.685946     2.17812  -0.000167544
1740    0.101612    0.686019     2.13111  0.000343496
1750   0.0945335    0.683545      1.4462  -0.000152835
1760    0.104669    0.687088       1.489  -0.000307588
1770    0.100685    0.685695     2.26734  0.00063999
1780   0.0918688    0.682614     2.40635  0.000508858
1790   0.0905082    0.682139     3.73476  8.93831e-05
1800   0.0900811    0.681989     5.51958  0.000113047
1810   0.0882472    0.681348     4.19242  0.000246183
1820   0.0851574    0.680269     3.50501  0.000325009
1830    0.081747    0.679077     2.86531  4.36086e-05
1840   0.0842853    0.679964     1.53695  -0.000403213
1850   0.0898113    0.681895     2.63377  -0.000325436
1860    0.090794    0.682238     3.13639  4.32078e-05
1870   0.0889471    0.681593     2.67921  0.00053936
1880   0.0800068    0.678468     2.35979  0.000540213
1890   0.0781429    0.677817     1.35349  2.87369e-05
1900   0.0794321    0.678268     3.18308  0.000266213
1910   0.0728186    0.675956     4.64955  7.64303e-05
1920   0.0779034    0.677733     3.09144  -0.000207946
1930   0.0769776     0.67741     2.90928  0.000179934
1940   0.0743048    0.676476     2.36033  0.000204084
1950   0.0728959    0.675983     4.05293  2.17445e-05
1960   0.0738699    0.676324      3.2749  0.000372395
1970    0.065448     0.67338     4.00843  0.000221241
1980   0.0694451    0.674777     1.03116  -0.000567892
1990   0.0768058     0.67735     2.81495  6.46375e-06
2000   0.0693158    0.674732     3.04537  0.000341757
2010   0.0699707    0.674961      2.2656  0.000238926
2020   0.0645373    0.673062     2.86097  0.00015888
2030   0.0667931     0.67385     4.32445  0.000191932
2040   0.0606986     0.67172     4.78351  0.000521717
2050   0.0563587    0.670204      2.3127  7.61487e-06
2060   0.0605463    0.671667     3.27208  0.000233989
2070    0.051679    0.668568     4.92184  0.000136914
2080    0.057808     0.67071     5.69754  4.11527e-05
2090   0.0508559     0.66828     4.55375  4.84776e-05
2100   0.0568385    0.670371     4.87264  0.000114291
2110   0.0485701    0.667481     4.91893  0.000308466
2120   0.0506692    0.668215     4.09484  0.00010677
2130   0.0464347    0.666735     4.68985  0.000228668
2140   0.0460958    0.666617     4.55215   6.653e-05
2150   0.0451041     0.66627     6.47526  4.22187e-05
2160   0.0452514    0.666322     4.36891  4.23977e-05
2170   0.0442561    0.665974     3.36158  0.000124208
2180   0.0427673    0.665453     5.19229  0.000132693
2190   0.0416023    0.665046     4.04828  8.38745e-05
2200   0.0410898    0.664867     3.59021  -0.000268865
2210   0.0469796    0.666926     3.86299  7.60548e-05
2220   0.0395687    0.664336     3.68203  0.000248229
2230    0.042015    0.665191     2.12544  1.05398e-05
2240   0.0393579    0.664262     3.81889  -1.45219e-05
2250   0.0423054    0.665292     3.54329  -9.68274e-05
2260   0.0412944    0.664939     4.36761  -0.000271082
2270   0.0477271    0.667187     3.72483  -0.000130467
2280   0.0439038    0.665851     3.22105  0.000449175
2290   0.0387436    0.664047     4.00172  0.000292426
2300   0.0380553    0.663807     2.71884  0.000110539
2310   0.0365328    0.663275     3.54173  -6.40912e-05
2320   0.0393371    0.664255     3.90793  -4.7335e-05
2330   0.0374795    0.663605     3.22016  0.000302881
2340   0.0332795    0.662138     2.62564  0.000403887
2350   0.0294018    0.660782     2.67345  0.000153858
2360   0.0302023    0.661062     3.58789  -4.66444e-05
2370   0.0303346    0.661108     2.71808  -0.000248246
2380   0.0351672    0.662797      2.3966  -0.000273777
2390   0.0358102    0.663022      4.2715  -8.9656e-05
2400   0.0369603    0.663424     4.45469  3.65224e-05
2410   0.0350797    0.662767     2.34946  0.000458333
2420   0.0277937     0.66022     1.15983  0.000332419
2430   0.0284314    0.660443     1.75445  7.15611e-05
2440   0.0263625     0.65972     2.48748  -6.39035e-05
2450   0.0297094     0.66089      3.8587  0.000267032
2460   0.0210218    0.657854     1.52693  0.00027544
2470   0.0242006    0.658965      1.7091  -0.000394873
2480   0.0289193    0.660614      3.2177  4.41717e-06
2490   0.0241123    0.658934     1.70794  0.000447197
2500   0.0199753    0.657488     2.25908  -0.00026884
2510   0.0294891    0.660813     3.30876  -0.00031134
2520   0.0262021    0.659664     2.94403  9.79189e-05
2530   0.0275307    0.660128     2.02785  -6.44322e-05
2540   0.0274908    0.660114     2.71455  4.69257e-05
2550   0.0265922      0.6598     1.66147  0.000210309
2560   0.0232846    0.658644     2.25729  0.000262351
2570   0.0213452    0.657967     3.99654  -2.98626e-05
2580   0.0238819    0.658853     2.89604  4.87762e-06
2590   0.0212476    0.657932     2.30255  4.48534e-06
2600   0.0237922    0.658822     3.85852  1.34987e-05
2610   0.0209776    0.657838      1.7981  0.000437859
2620    0.015035    0.655761     3.53887  -0.000220678
2630   0.0253912    0.659381     3.03254  -0.000645985
2640   0.0279547    0.660277     4.81714  0.000291523
2650   0.0195608    0.657343     3.26319  0.000709786
2660    0.013759    0.655315     2.25706  5.7474e-05
2670   0.0184113    0.656941     1.43158  -0.000701728
2680   0.0277935     0.66022     3.53471  -0.000143403
2690   0.0212793    0.657944     3.53565  0.000415791
2700   0.0194777    0.657314      2.9863  6.63593e-05
2710   0.0199522     0.65748     3.12409  0.000119399
2720   0.0170897    0.656479      3.1702  7.55092e-05
2730    0.018442    0.656952     4.81768  6.72121e-05
2740   0.0157455    0.656009     4.22226  -2.10965e-05
2750   0.0188639    0.657099     3.85579  0.000155887
2760   0.0126277     0.65492     4.22249  0.000482977
2770  0.00920436    0.653723     4.36135  -0.000348118
2780   0.0195901    0.657353     4.81674  -0.000356986
2790   0.0163441    0.656219     5.64075  0.000253968
2800   0.0145107    0.655578     3.62711  5.90514e-05
2810   0.0151631    0.655806     3.21372  -3.85775e-05
2820   0.0152823    0.655848      1.8397  0.000335924
2830  0.00844458    0.653458       3.489  -2.98455e-05
2840   0.0158792    0.656056     4.77041  -0.000216798
2850   0.0127805    0.654973     3.94573  0.000167016
2860   0.0125389    0.654889     4.63154  8.69869e-05
2870   0.0110408    0.654365     3.67045  -0.000110488
2880   0.0147486    0.655661     2.70785  0.000420276
2890  0.00263527    0.651428     4.35823  0.000501422
2900   0.0047202    0.652156     3.71625  -3.74178e-05
2910  0.00338363    0.651689     4.86057  0.000133887
2920  0.00204246     0.65122     3.39651  -4.66357e-05
2930  0.00431634    0.652015     3.71603  -0.000526603
2940   0.0125745    0.654901     4.26328  -0.000255546
2950  0.00942726    0.653801     2.15858  0.000160756
2960  0.00935938    0.653778     3.85199  7.95938e-05
2970  0.00783539    0.653245     2.57197  -0.000321104
2980   0.0157815    0.656022     2.75226  5.26731e-05
2990  0.00678192    0.652877     1.88487  4.24488e-05
3000   0.0149325    0.655725     1.74506  7.23968e-06
3010  0.00663713    0.652826      3.9443  0.000574168
3020  0.00344912    0.651712      3.0291  0.000245842
3030   0.0017203    0.651108     5.13514  -0.000479285
3040   0.0130348    0.655062     2.15715  -0.000470485
3050     0.01113    0.654396       2.935  0.000144631
3060   0.0101422    0.654051     3.62264  0.000126622
3070  0.00859756    0.653511     3.11954   3.451e-05
3080  0.00945199     0.65381     1.83679  -0.000372438
3090   0.0160463    0.656115     2.70557  -9.50111e-05
3100   0.0113522    0.654474     3.62255  0.000163809
3110   0.0127701     0.65497      2.4781  1.59972e-05
3120   0.0110323    0.654362      1.8838  -2.85665e-06
3130   0.0128273     0.65499     2.56907  5.33552e-05
3140  0.00996516    0.653989     3.80561  -0.000413608
3150   0.0210994    0.657881     1.19401  -0.000441867
3160   0.0188025    0.657078     2.24759  0.000201926
3170   0.0170609    0.656469     2.75092  0.000615167
3180  0.00649916    0.652778     3.25545  9.98205e-05
3190   0.0150645    0.655771     2.20139  -0.000218213
3200   0.0108634    0.654303     2.10997  0.000166376
3210    0.011737    0.654609     2.38413  0.000148332
3220  0.00789678    0.653266     2.01895  0.000564063
3230  0.000455698    0.650666     3.48502  -1.15971e-05
3240  0.00812872    0.653347      2.5679  -0.000626381
3250   0.0129833    0.655044     2.33713  0.000168585
3260  0.00475703    0.652169     2.70472  0.000358197
3270  0.00581936     0.65254     2.33909  -0.00025865
3280  0.00993003    0.653977     1.37693  2.67586e-05
3290  0.00528419    0.652353    0.691841  0.000293433
3300  0.00406138    0.651926     2.79658  2.68951e-05
3310  0.00474629    0.652165     1.56066  0.000400493
3320  -0.00394848    0.649127     2.70588  -0.000586575
3330   0.0164778    0.656265     1.37456  -0.000816624
3340    0.012384    0.654835     2.33735  0.000294618
3350   0.0105854    0.654206    0.368797  0.000806187
3360  -0.00373973      0.6492   -0.269916  9.38769e-05
3370   0.0087079     0.65355     2.10764  -0.00065736
3380  0.00940748    0.653794    0.825749  -2.16764e-05
3390  0.00914143    0.653701     2.65615  0.000317318
3400  0.00306113    0.651576    0.506504  -3.14913e-05
3410  0.00977125    0.653922     1.37528  -3.06215e-05
3420  0.00367356     0.65179    0.917659  0.000318716
3430  0.00339693    0.651694    0.963187  -0.000264772
3440    0.008969    0.653641     1.83156  -0.000167519
3450   0.0067473    0.652865    -1.18869  -7.08362e-05
3460   0.0103857    0.654136   0.0910603  -2.04656e-06
3470  0.00678824    0.652879   -0.548815  0.000742855
3480  -0.00447137    0.648944    0.459366  0.000489151
3490  -0.00299478     0.64946   -0.364462  -5.9367e-05
3500  -0.00328403    0.649359   -0.456906  -0.000286355
3510  0.00273231    0.651461   -0.366204  -0.000375559
3520  0.00422715    0.651984     1.51039  -0.000199138
3530  0.00671507    0.652853     1.00693  8.74133e-05
3540  0.00247888    0.651373   0.0918196  0.000146669
3550  0.00378168    0.651828     0.73232  -5.10614e-05
3560  0.00350011     0.65173     2.10514  -8.11969e-05
3570  0.00540562    0.652396     1.73871  0.000127901
3580  0.000942095    0.650836    0.321078  4.80172e-05
3590  0.00444528     0.65206     1.41777  -0.000240973
3600  0.00576155     0.65252   0.0447249  -1.74809e-06
3610  0.00448024    0.652072     1.55503  0.000419057
3620  -0.00261958    0.649591     2.19705  0.000379797
3630  -0.0031157    0.649418     2.33431  5.96996e-05
3640  -0.00381358    0.649174     3.11256  -0.00030271
3650   0.0029385    0.651534     2.37796  -0.000151735
3660  -0.000778883    0.650234     2.15089  0.000311655
3670  -0.0032946    0.649355     1.64698  0.000343113
3680  -0.00764113    0.647836     2.24271  -5.11645e-07
3690  -0.00328437    0.649359    0.548055  0.000193058
3700  -0.0115023    0.646487   -0.366024  -1.06847e-05
3710  -0.00307068    0.649433     2.69882  -0.000335302
3720  -0.00479626     0.64883     2.33234  0.000356432
3730  -0.0101993    0.646942     2.42497  0.00014273
3740  -0.00765086    0.647833     2.37903  -0.000429204
3750  -0.00161524    0.649942      2.4234  0.000225641
3760  -0.0121637    0.646255     2.79099  0.000440639
3770   -0.010428    0.646862     4.11851  -0.000317846
3780  -0.00580674    0.648477     2.10335  -5.09164e-05
3790  -0.00940969    0.647218     1.91989  -0.000123927
3800  -0.0033282    0.649343     3.01712  -0.000412815
3810  -0.0011534    0.650103     2.83415  0.000527251
3820  -0.0138732    0.645658     3.06489  0.000382645
3830  -0.0088063    0.647429     3.38493  -0.000320669
3840  -0.00745984    0.647899     2.92691  -3.08262e-05
3850  -0.00818978    0.647644     2.60628  -0.000124848
3860  -0.00496288    0.648772     3.24629  -0.000177137
3870  -0.00464703    0.648882     2.42228  -0.000251069
3880  5.84972e-05    0.650527     1.77991  4.15535e-05
3890  -0.0054781    0.648592     2.05595  7.22944e-05
3900  -0.00138739    0.650022     1.32264  -4.22186e-05
3910  -0.00463373    0.648887     2.28485  -3.24378e-05
3920  -0.000738634    0.650248    0.177872  -0.000189937
3930  -0.000834992    0.650215     1.68858  0.000231226
3940  -0.00536315    0.648632     1.27725  -0.000159537
3950  0.00235575     0.65133     1.64229  9.50878e-05
3960  -0.00726491    0.647968   -0.232476  0.000115161
3970  5.25281e-05    0.650525    0.268619  -3.17727e-05
3980  -0.00662946     0.64819    -1.79045  0.000371346
3990  -0.0073744    0.647929    0.406191  -0.000298438
4000  -0.000660694    0.650276   -0.877134  -0.000149347
4010  -0.00438746    0.648973    -1.60838  -0.000118666
4020  0.00171262    0.651105   -0.648458  0.000117472
4030  -0.0067369    0.648152    -1.60829  0.000492204
4040  -0.00813145    0.647665    -2.11238  -0.000214947
4050  -0.00243795    0.649655     -2.0677  0.000118683
4060  -0.0105051    0.646835    -2.24928  0.000484572
4070  -0.0121294    0.646267    -1.74622  -0.000226212
4080  -0.00598087    0.648416    -1.70172  -0.000269607
4090  -0.00673724    0.648152    -1.42702  0.000238389
4100  -0.0107486     0.64675    -1.51862  0.000108604
4110  -0.00890931    0.647393    -1.47318  -7.54495e-05
4120  -0.00923966    0.647277    -1.97669  -0.000195718
4130  -0.00499495    0.648761   -0.971322  -0.000305141
4140  -0.00313685     0.64941    -2.38976  0.00041516
4150  -0.0132981    0.645859    -1.56433  0.000152715
4160  -0.00619115    0.648343    -2.29803  6.69733e-05
4170  -0.0146376    0.645391    -1.42742  -5.50266e-05
4180  -0.00509062    0.648727    -1.06247  -0.00044996
4190  -0.00563842    0.648536    -1.01801  0.000121045
4200  -0.00751152    0.647881   -0.513835  0.000364328
4210   -0.012925    0.645989   -0.100939  0.000387412
4220  -0.0152598    0.645173    -1.42917  -6.53958e-05
4230  -0.0116171    0.646446    -1.56616  -0.00035378
4240  -0.00818415    0.647646   -0.148525  0.000156578
4250  -0.0147486    0.645352    0.402884  -0.000178024
4260  -0.00462367    0.648891    -1.61442  -9.76375e-06
4270  -0.0145534     0.64542    -2.16162  0.000368626
4280  -0.0119962    0.646314    -1.84117  -0.000289817
4290  -0.00875702    0.647446    -2.30022  -3.27277e-05
4300  -0.0113416    0.646543    -1.88844  3.41177e-05
4310  -0.00943937    0.647208    -3.12351  6.83889e-05
4320  -0.0127094    0.646065    -1.38417  0.000395248
4330  -0.0173443    0.644445    -3.90181  0.000272242
4340  -0.0181543    0.644162    -2.62027  0.000318844
4350  -0.0237212    0.642216    -2.57461  0.000206147
4360  -0.0222772    0.642721    -3.26171  -0.000462699
4370  -0.0144672     0.64545    -1.24902  -0.000167902
4380  -0.0189192    0.643894    -1.20206  0.000149603
4390  -0.0174593    0.644405    -2.48435  -0.000363254
4400  -0.0116541    0.646434    -2.80615  0.000150669
4410  -0.0204727    0.643351    -2.53038  0.000310342
4420  -0.0178609    0.644264    -2.30215  -0.000284573
4430  -0.0147812    0.645341    -3.40107  -0.000596083
4440  -0.00593926    0.648431     -3.9527  0.000404808
4450  -0.0228774    0.642511    -4.40791  0.00107346
4460  -0.0274084    0.640927    -2.85105  -0.000343999
4470  -0.0159974    0.644916    -4.77421  -0.000100503
4480  -0.0253984     0.64163    -3.35425  0.000233818
4490  -0.0206737    0.643281    -3.53815  -4.31225e-05
4500  -0.0245359    0.641931    -3.85874  -0.000242098
4510  -0.0158318    0.644973    -3.76884  -0.000148426
4520  -0.0215674    0.642969    -1.57085  0.000364115
4530  -0.0231141    0.642428    -2.62264  7.29851e-05
4540  -0.0230271    0.642459    -2.11953  -7.91077e-05
4550  -0.0215319    0.642981    -3.17311  -0.000349653
4560   -0.016034    0.644903    -3.40322  -0.000374135
4570  -0.0140492    0.645596    -2.80856  -1.00536e-05
4580   -0.015833    0.644973    -1.29745  0.000367842
4590  -0.0214061    0.643025    -2.02879  0.000167502
4600   -0.019183    0.643802    -1.84613  -0.00023456
4610  -0.0167149    0.644665    -2.21278  -0.000187848
4620   -0.015426    0.645115    -3.35769  -0.00031968
4630  -0.0103213    0.646899    -4.27481  -0.000332436
4640  -0.00877731    0.647439    -1.75744  7.24308e-05
4650  -0.0117699    0.646393    -3.26752  7.22432e-05
4660  -0.0102222    0.646934     -1.5738  -3.50386e-05
4670  -0.0110691    0.646638    -2.03147  0.00020503
4680  -0.0143228    0.645501    -2.94707  -0.000468882
4690  -0.00169147    0.649915    -1.57631  0.000423789
4700  -0.0227986    0.642539    -2.58046  0.00072441
4710  -0.0161797    0.644852    -2.71831  -0.000663091
4720  -0.00953675    0.647174     -1.9884  -0.000532145
4730  -0.00553677    0.648571     -2.5835  8.56396e-05
4740  -0.0112495    0.646575    -1.80472  0.000146013
4750  -0.00845703    0.647551    -3.40644    -0.00017
4760  -0.00784954    0.647763    -4.32231  -0.000134177
4770  -0.00577349    0.648489    -3.45246  -7.3258e-05
4780  -0.00638438    0.648275    -3.04037  0.00040491
4790  -0.0138717    0.645658    -3.95601  0.000245936
4800  -0.0113031    0.646556    -3.26962  -0.000331319
4810  -0.0072453    0.647974    -3.68234  -4.84947e-05
4820  -0.0103332    0.646895    -4.45997  -4.9356e-05
4830  -0.00625818    0.648319    -4.36931  -0.000346293
4840  -0.00340733    0.649316    -4.32392  -0.000322946
4850  0.000200732    0.650577    -4.04917  -0.000174835
4860  8.9366e-05    0.650538    -3.27213  0.000659398
4870  -0.0129872    0.645968    -3.86446  0.000348417
4880  -0.00687897    0.648102    -4.36904  -0.000449286
4890  -0.00400152    0.649108    -3.63797  -0.000288367
4900  -0.00111162    0.650118    -4.27856  0.000150242
4910  -0.00700636    0.648058    -4.73552  0.000301056
4920  -0.00713274    0.648014    -5.01057  -0.000189127
4930  -0.00322383     0.64938    -4.27919  -0.000530747
4940   0.0034822    0.651724    -4.14309  -0.000443922
4950  0.00565462    0.652483    -5.10516  0.000213728
4960  -0.000792356     0.65023    -5.42374  0.000531532
4970  -0.00497602    0.648767    -6.06366  2.42943e-05
4980  -0.00127824     0.65006    -4.28022  -5.13599e-05
4990  -0.00394882    0.649126    -4.96678  -0.000127014
