Time   Number   
ps   
0          23          27
10          24          22
20          19          31
30          21          28
40          23          27
50          26          26
60          23          25
70          19          29
80          23          33
90          25          31
100          23          30
110          21          27
120          22          34
130          23          29
140          24          28
150          20          29
160          22          28
170          26          26
180          23          28
190          21          28
200          22          29
210          23          31
220          26          29
230          22          27
240          23          28
250          24          32
260          22          27
270          19          32
280          23          33
290          23          28
300          20          28
310          22          29
320          23          29
330          25          27
340          24          28
350          21          32
360          26          29
370          23          35
380          21          28
390          25          30
400          26          33
410          24          31
420          21          39
430          23          29
440          25          30
450          21          28
460          20          33
470          21          32
480          25          28
490          25          30
500          23          33
510          21          32
520          17          32
530          23          24
540          24          24
550          23          30
560          22          32
570          19          28
580          24          27
590          24          27
600          25          28
610          22          32
620          23          31
630          26          28
640          25          21
650          25          25
660          21          30
670          21          25
680          22          28
690          21          32
700          22          29
710          24          28
720          20          27
730          21          29
740          20          25
750          21          30
760          25          27
770          21          27
780          26          26
790          20          29
800          21          30
810          22          29
820          22          28
830          25          26
840          22          25
850          21          32
860          21          32
870          25          32
880          25          25
890          23          30
900          25          29
910          26          28
920          20          34
930          20          30
940          25          26
950          21          29
960          23          31
970          21          25
980          23          25
990          22          26
1000          18          29
1010          24          30
1020          20          34
1030          27          27
1040          24          29
1050          21          26
1060          22          27
1070          23          32
1080          24          29
1090          19          31
1100          22          29
1110          27          27
1120          24          34
1130          23          32
1140          24          30
1150          22          34
1160          23          30
1170          24          32
1180          23          31
1190          24          29
1200          27          27
1210          22          29
1220          22          30
1230          21          30
1240          24          30
1250          25          29
1260          21          36
1270          24          29
1280          25          29
1290          24          28
1300          23          28
1310          20          32
1320          25          30
1330          24          29
1340          23          30
1350          21          29
1360          20          32
1370          25          33
1380          25          32
1390          20          31
1400          25          25
1410          23          31
1420          22          30
1430          25          26
1440          23          29
1450          24          28
1460          25          25
1470          21          27
1480          21          25
1490          22          27
1500          20          30
1510          21          25
1520          21          30
1530          20          32
1540          21          27
1550          22          28
1560          21          26
1570          23          29
1580          22          28
1590          21          28
1600          23          25
1610          18          31
1620          22          26
1630          22          27
1640          21          28
1650          24          26
1660          24          30
1670          24          27
1680          22          30
1690          24          28
1700          23          30
1710          20          27
1720          24          26
1730          21          28
1740          24          25
1750          24          23
1760          21          24
1770          20          28
1780          23          26
1790          22          32
1800          25          23
1810          19          29
1820          21          29
1830          20          29
1840          27          26
1850          21          30
1860          17          31
1870          22          27
1880          23          27
1890          19          31
1900          23          26
1910          25          22
1920          21          28
1930          23          25
1940          18          30
1950          24          27
1960          24          28
1970          21          32
1980          25          26
1990          22          31
2000          26          26
2010          20          30
2020          28          23
2030          19          28
2040          24          27
2050          21          32
2060          21          33
2070          21          28
2080          26          27
2090          26          26
2100          23          27
2110          23          29
2120          20          32
2130          20          33
2140          21          29
2150          25          28
2160          21          29
2170          23          25
2180          20          31
2190          20          24
2200          26          24
2210          20          26
2220          20          21
2230          19          30
2240          23          27
2250          19          33
2260          22          27
2270          23          29
2280          20          35
2290          23          27
2300          25          21
2310          21          29
2320          20          27
2330          22          24
2340          22          25
2350          16          30
2360          23          24
2370          24          25
2380          26          27
2390          21          29
2400          24          26
2410          25          26
2420          23          29
2430          21          26
2440          23          26
2450          22          29
2460          23          25
2470          23          27
2480          25          23
2490          21          25
2500          20          27
2510          21          29
2520          19          26
2530          19          26
2540          19          30
2550          24          23
2560          22          30
2570          22          26
2580          24          26
2590          24          26
2600          25          26
2610          21          33
2620          20          27
2630          22          25
2640          22          27
2650          25          27
2660          24          24
2670          23          31
2680          22          28
2690          19          30
2700          17          37
2710          22          27
2720          21          25
2730          21          26
2740          17          26
2750          25          25
2760          22          22
2770          22          21
2780          23          20
2790          17          25
2800          23          24
2810          23          22
2820          21          24
2830          22          26
2840          20          29
2850          20          29
2860          21          31
2870          21          30
2880          22          27
2890          23          25
2900          24          26
2910          24          24
2920          24          24
2930          16          30
2940          18          30
2950          22          33
2960          22          22
2970          23          27
2980          24          19
2990          16          37
3000          21          33
3010          20          28
3020          19          28
3030          22          29
3040          22          27
3050          21          25
3060          17          33
3070          21          24
3080          18          28
3090          25          18
3100          24          26
3110          22          21
3120          23          26
3130          19          33
3140          19          25
3150          26          21
3160          15          37
3170          23          28
3180          24          25
3190          22          26
3200          23          24
3210          23          22
3220          25          25
3230          21          27
3240          23          25
3250          23          30
3260          21          28
3270          23          27
3280          21          30
3290          24          25
3300          22          26
3310          23          26
3320          18          24
3330          21          29
3340          22          23
3350          23          21
3360          21          19
3370          17          29
3380          20          28
3390          23          24
3400          20          27
3410          23          23
3420          22          25
3430          21          24
3440          21          25
3450          20          27
3460          22          22
3470          22          26
3480          20          26
3490          21          29
3500          20          28
3510          20          30
3520          18          30
3530          19          29
3540          22          21
3550          20          30
3560          20          30
3570          22          30
3580          24          31
3590          23          29
3600          23          25
3610          22          27
3620          22          31
3630          21          29
3640          23          30
3650          20          33
3660          20          32
3670          20          30
3680          23          31
3690          26          28
3700          23          27
3710          20          33
3720          20          31
3730          20          31
3740          22          23
3750          20          29
3760          23          25
3770          23          25
3780          20          25
3790          20          26
3800          18          29
3810          21          27
3820          19          28
3830          21          27
3840          24          25
3850          20          27
3860          22          26
3870          21          30
3880          24          22
3890          20          28
3900          22          28
3910          19          33
3920          22          23
3930          20          26
3940          22          26
3950          19          26
3960          21          26
3970          24          23
3980          23          22
3990          21          25
4000          19          30
4010          19          27
4020          24          24
4030          23          21
4040          28          20
4050          22          21
4060          20          24
4070          21          23
4080          22          24
4090          21          29
4100          23          24
4110          22          26
4120          25          22
4130          21          27
4140          23          28
4150          22          28
4160          22          25
4170          23          24
4180          19          29
4190          24          24
4200          24          26
4210          20          27
4220          22          24
4230          20          28
4240          21          28
4250          23          27
4260          21          28
4270          22          24
4280          18          29
4290          26          27
4300          22          25
4310          23          26
4320          24          28
4330          22          26
4340          24          24
4350          24          25
4360          22          28
4370          24          28
4380          18          28
4390          26          24
4400          21          28
4410          26          22
4420          21          29
4430          22          25
4440          25          19
4450          21          28
4460          18          28
4470          24          24
4480          23          26
4490          26          24
4500          26          19
4510          22          25
4520          23          27
4530          23          27
4540          20          30
4550          21          34
4560          21          33
4570          23          26
4580          24          26
4590          23          30
4600          23          27
4610          21          29
4620          22          25
4630          25          28
4640          22          34
4650          22          36
4660          22          23
4670          22          27
4680          26          30
4690          20          33
4700          22          29
4710          25          21
4720          24          22
4730          24          23
4740          23          23
4750          22          22
4760          23          28
4770          24          25
4780          22          25
4790          24          26
4800          22          25
4810          18          32
4820          25          31
4830          22          30
4840          22          25
4850          23          27
4860          21          29
4870          21          32
4880          21          32
4890          27          23
4900          21          27
4910          19          28
4920          23          27
4930          19          27
4940          24          21
4950          21          28
4960          26          26
4970          19          30
4980          22          26
4990          19          33
5000          24          22
5010          17          28
5020          21          27
5030          23          26
5040          22          26
5050          24          23
5060          20          29
5070          17          33
5080          17          34
5090          20          30
5100          20          31
5110          23          27
5120          17          30
5130          18          37
5140          21          23
5150          25          27
5160          21          29
5170          25          21
5180          20          27
5190          20          25
5200          19          27
5210          22          24
5220          24          22
5230          23          21
5240          20          26
5250          20          26
5260          19          27
5270          21          27
5280          22          24
5290          22          28
5300          23          25
5310          21          25
5320          23          26
5330          21          26
5340          26          24
5350          22          26
5360          21          31
5370          20          29
5380          19          26
5390          24          28
5400          20          28
5410          22          26
5420          22          26
5430          25          22
5440          22          27
5450          22          26
5460          25          26
5470          23          25
5480          24          25
5490          28          26
5500          21          27
5510          26          23
5520          24          27
5530          22          30
5540          26          28
5550          24          29
5560          26          31
5570          20          33
5580          20          29
5590          22          30
5600          20          29
5610          23          30
5620          29          23
5630          24          25
5640          23          30
5650          27          26
5660          23          32
5670          22          28
5680          23          28
5690          26          20
5700          21          31
5710          19          32
5720          24          27
5730          23          28
5740          20          27
5750          19          29
5760          23          25
5770          21          25
5780          20          31
5790          20          26
5800          25          26
5810          23          24
5820          19          32
5830          22          27
5840          19          29
5850          23          30
5860          23          28
5870          19          33
5880          24          26
5890          20          33
5900          20          28
5910          25          26
5920          17          31
5930          25          24
5940          23          29
5950          23          32
5960          18          33
5970          20          31
5980          23          28
5990          21          30
6000          21          31
6010          21          25
6020          20          32
6030          20          27
6040          26          26
6050          23          32
6060          24          32
6070          23          24
6080          22          24
6090          26          21
6100          19          33
6110          21          25
6120          22          27
6130          22          28
6140          17          30
6150          21          30
6160          21          28
6170          23          25
6180          26          24
6190          23          25
6200          23          27
6210          22          30
6220          23          25
6230          25          20
6240          22          28
6250          20          31
6260          23          31
6270          21          26
6280          22          24
6290          25          25
6300          23          28
6310          24          24
6320          19          27
6330          19          30
6340          21          25
6350          23          28
6360          20          28
6370          23          31
6380          24          27
6390          20          30
6400          23          28
6410          21          28
6420          24          32
6430          22          27
6440          23          25
6450          22          30
6460          19          31
6470          22          30
6480          19          28
6490          23          27
6500          19          33
6510          21          29
6520          17          31
6530          23          28
6540          22          25
6550          18          29
6560          23          25
6570          21          28
6580          22          31
6590          18          32
6600          23          26
6610          20          30
6620          26          25
6630          19          30
6640          20          29
6650          24          23
6660          19          35
6670          20          30
6680          22          28
6690          20          31
6700          20          27
6710          22          29
6720          20          31
6730          23          29
6740          20          29
6750          16          30
6760          21          30
6770          24          22
6780          20          30
6790          24          28
6800          20          32
6810          23          28
6820          20          32
6830          22          25
6840          22          26
6850          21          30
6860          23          28
6870          17          30
6880          21          26
6890          19          31
6900          24          26
6910          22          28
6920          18          32
6930          21          30
6940          19          30
6950          20          29
6960          20          29
6970          20          27
6980          18          33
6990          22          24
7000          21          26
7010          22          25
7020          21          27
7030          21          33
7040          25          26
7050          22          29
7060          17          32
7070          23          31
7080          22          25
7090          20          34
7100          22          27
7110          22          29
7120          24          24
7130          19          32
7140          25          24
7150          21          30
7160          23          31
7170          24          27
7180          22          28
7190          16          33
7200          28          21
7210          22          29
7220          21          25
7230          21          27
7240          22          26
7250          21          21
7260          19          33
7270          22          28
7280          19          29
7290          19          32
7300          22          26
7310          23          27
7320          22          28
7330          24          24
7340          23          27
7350          20          29
7360          22          25
7370          22          26
7380          22          28
7390          21          23
7400          23          24
7410          22          24
7420          23          26
7430          23          24
7440          24          26
7450          23          23
7460          22          26
7470          23          27
7480          21          28
7490          21          25
7500          21          29
7510          25          26
7520          18          35
7530          22          31
7540          19          30
7550          19          33
7560          21          27
7570          19          28
7580          23          31
7590          23          24
7600          21          29
7610          24          31
7620          18          27
7630          23          28
7640          22          30
7650          24          31
7660          21          29
7670          21          27
7680          23          28
7690          26          25
7700          23          30
7710          24          26
7720          22          28
7730          23          32
7740          22          33
7750          27          26
7760          20          34
7770          27          25
7780          27          27
7790          20          36
7800          19          35
7810          23          33
7820          22          31
7830          22          32
7840          25          29
7850          25          29
7860          26          27
7870          25          28
7880          22          35
7890          23          31
7900          25          24
7910          23          30
7920          21          29
7930          27          28
7940          24          28
7950          24          30
7960          31          23
7970          26          30
7980          28          28
7990          23          30
8000          25          27
8010          21          36
8020          26          28
8030          23          34
8040          20          33
8050          24          29
8060          29          21
8070          29          28
8080          23          28
8090          23          29
8100          22          30
8110          25          28
8120          26          30
8130          23          30
8140          23          33
8150          26          30
8160          19          34
8170          21          33
8180          22          30
8190          21          33
8200          24          27
8210          26          24
8220          23          33
8230          24          29
8240          24          26
8250          19          33
8260          21          35
8270          22          33
8280          23          27
8290          20          30
8300          26          30
8310          21          32
8320          23          30
8330          24          28
8340          27          25
8350          22          32
8360          23          31
8370          23          27
8380          21          30
8390          24          29
8400          25          25
8410          23          29
8420          22          30
8430          24          30
8440          23          27
8450          23          31
8460          21          28
8470          22          29
8480          27          28
8490          23          31
8500          24          25
8510          21          28
8520          23          25
8530          21          30
8540          23          29
8550          28          25
8560          22          28
8570          21          25
8580          22          31
8590          23          26
8600          23          29
8610          21          28
8620          26          29
8630          26          25
8640          21          22
8650          23          27
8660          24          27
8670          22          31
8680          21          29
8690          24          29
8700          23          31
8710          24          24
8720          24          31
8730          24          25
8740          25          25
8750          23          33
8760          24          26
8770          24          28
8780          25          32
8790          23          30
8800          23          33
8810          22          32
8820          24          28
8830          22          25
8840          24          26
8850          23          33
8860          22          31
8870          23          27
8880          26          24
8890          23          27
8900          24          29
8910          26          23
8920          23          23
8930          26          27
8940          25          31
8950          23          28
8960          22          31
8970          25          31
8980          24          31
8990          24          28
9000          18          32
9010          25          27
9020          24          31
9030          23          26
9040          23          27
9050          24          28
9060          25          28
9070          23          27
9080          25          30
9090          21          33
9100          25          29
9110          25          27
9120          24          25
9130          28          27
9140          24          27
9150          27          24
9160          25          27
9170          28          24
9180          22          25
9190          23          31
9200          28          28
9210          21          33
9220          27          22
9230          23          28
9240          22          24
9250          24          27
9260          25          29
9270          22          36
9280          21          29
9290          26          24
9300          22          30
9310          23          28
9320          22          30
9330          24          26
9340          23          26
9350          23          30
9360          24          29
9370          22          33
9380          22          29
9390          27          26
9400          23          29
9410          24          32
9420          25          26
9430          21          24
9440          24          25
9450          27          25
9460          27          27
9470          26          27
9480          23          30
9490          21          31
9500          26          27
9510          27          28
9520          26          28
9530          22          29
9540          20          34
9550          22          30
9560          23          30
9570          25          35
9580          22          31
9590          25          28
9600          22          31
9610          27          29
9620          28          30
9630          24          31
9640          23          29
9650          24          30
9660          24          31
9670          25          27
9680          24          28
9690          28          34
9700          22          38
9710          24          30
9720          28          30
9730          24          31
9740          23          32
9750          25          30
9760          24          31
9770          22          30
9780          22          34
9790          21          31
9800          20          34
9810          25          31
9820          26          26
9830          23          34
9840          24          25
9850          22          31
9860          22          26
9870          24          30
9880          26          33
9890          21          35
9900          27          28
9910          22          32
9920          22          32
9930          25          25
9940          27          30
9950          24          25
9960          21          33
9970          18          32
9980          24          32
9990          24          27
10000          23          38
