Time   Number   
ps   
0          27          26
10          24          25
20          30          25
30          27          27
40          25          25
50          25          30
60          27          22
70          28          22
80          28          26
90          29          23
100          26          25
110          25          25
120          25          29
130          28          27
140          19          31
150          25          23
160          28          23
170          28          18
180          28          22
190          24          29
200          22          26
210          29          18
220          25          22
230          23          27
240          25          20
250          23          21
260          25          21
270          25          26
280          30          21
290          24          22
300          23          26
310          25          26
320          24          24
330          27          19
340          26          19
350          23          20
360          25          21
370          26          19
380          25          22
390          26          21
400          23          25
410          24          26
420          26          27
430          25          26
440          27          24
450          26          27
460          27          20
470          28          19
480          25          21
490          29          22
500          25          25
510          26          30
520          25          32
530          25          24
540          25          26
550          25          25
560          25          25
570          27          23
580          26          19
590          23          19
600          28          16
610          26          24
620          23          22
630          24          23
640          26          20
650          22          26
660          23          25
670          24          25
680          30          21
690          24          21
700          24          26
710          30          20
720          30          18
730          25          28
740          24          22
750          25          23
760          28          21
770          28          18
780          23          22
790          24          22
800          26          19
810          28          20
820          23          24
830          23          20
840          27          19
850          28          20
860          25          21
870          25          21
880          26          20
890          23          16
900          26          16
910          27          18
920          28          22
930          28          22
940          25          21
950          26          21
960          27          18
970          25          24
980          25          19
990          26          18
1000          26          21
1010          26          21
1020          26          22
1030          24          25
1040          24          23
1050          21          25
1060          25          22
1070          25          19
1080          26          15
1090          27          18
1100          23          19
1110          24          20
1120          22          25
1130          27          18
1140          23          27
1150          26          22
1160          26          24
1170          23          27
1180          23          29
1190          26          26
1200          23          27
1210          23          22
1220          22          26
1230          25          21
1240          24          21
1250          26          20
1260          26          14
1270          25          21
1280          22          26
1290          28          21
1300          21          22
1310          26          21
1320          25          26
1330          26          27
1340          25          23
1350          24          25
1360          25          27
1370          26          19
1380          26          21
1390          26          22
1400          25          19
1410          28          20
1420          28          20
1430          21          26
1440          24          24
1450          23          21
1460          26          20
1470          26          23
1480          26          19
1490          26          28
1500          32          20
1510          25          23
1520          25          21
1530          28          20
1540          29          19
1550          26          28
1560          27          33
1570          29          26
1580          30          28
1590          25          28
1600          23          28
1610          27          22
1620          26          23
1630          25          23
1640          24          23
1650          26          25
1660          20          30
1670          23          26
1680          23          23
1690          26          23
1700          24          27
1710          22          26
1720          23          30
1730          22          31
1740          22          30
1750          24          25
1760          23          28
1770          25          28
1780          27          21
1790          25          25
1800          23          23
1810          24          21
1820          24          22
1830          26          22
1840          22          29
1850          24          26
1860          23          21
1870          22          21
1880          24          21
1890          28          19
1900          22          30
1910          21          19
1920          20          26
1930          23          21
1940          23          25
1950          23          25
1960          22          33
1970          33          16
1980          27          18
1990          30          23
2000          27          21
2010          29          25
2020          24          24
2030          25          21
2040          23          24
2050          25          20
2060          26          26
2070          28          30
2080          26          23
2090          26          27
2100          25          23
2110          26          25
2120          28          26
2130          30          24
2140          28          22
2150          25          23
2160          23          23
2170          24          23
2180          21          27
2190          24          26
2200          24          31
2210          24          27
2220          25          25
2230          24          27
2240          22          26
2250          25          22
2260          20          31
2270          24          31
2280          19          30
2290          27          24
2300          24          32
2310          23          43
2320          23          33
2330          27          29
2340          26          35
2350          23          31
2360          22          33
2370          24          27
2380          29          24
2390          24          32
2400          28          27
2410          28          33
2420          23          29
2430          27          33
2440          24          32
2450          30          24
2460          25          32
2470          25          28
2480          22          28
2490          24          30
2500          23          31
2510          25          30
2520          22          35
2530          25          28
2540          28          27
2550          24          28
2560          25          24
2570          30          26
2580          29          28
2590          25          25
2600          29          25
2610          27          25
2620          30          30
2630          25          31
2640          29          21
2650          29          26
2660          27          22
2670          26          22
2680          26          27
2690          29          24
2700          28          24
2710          25          22
2720          25          23
2730          25          25
2740          27          22
2750          23          26
2760          23          25
2770          27          23
2780          26          18
2790          28          24
2800          30          18
2810          25          20
2820          27          29
2830          28          24
2840          28          23
2850          27          28
2860          24          24
2870          30          23
2880          27          23
2890          29          27
2900          24          27
2910          26          28
2920          28          23
2930          25          23
2940          30          21
2950          26          20
2960          25          24
2970          25          27
2980          28          22
2990          26          23
3000          26          22
3010          25          24
3020          25          25
3030          24          25
3040          23          23
3050          23          23
3060          24          16
3070          26          20
3080          24          21
3090          21          21
3100          23          24
3110          25          20
3120          25          23
3130          23          20
3140          21          25
3150          22          19
3160          22          19
3170          22          21
3180          19          22
3190          20          21
3200          22          22
3210          24          24
3220          21          29
3230          26          24
3240          23          29
3250          24          24
3260          25          22
3270          25          27
3280          25          21
3290          27          24
3300          28          23
3310          25          20
3320          24          23
3330          24          25
3340          25          25
3350          22          26
3360          27          24
3370          25          21
3380          20          26
3390          24          26
3400          24          23
3410          25          19
3420          24          24
3430          23          25
3440          24          24
3450          25          23
3460          23          24
3470          25          24
3480          24          22
3490          26          22
3500          23          23
3510          23          26
3520          25          20
3530          26          21
3540          24          21
3550          25          23
3560          23          22
3570          24          20
3580          25          22
3590          25          26
3600          24          26
3610          26          21
3620          26          20
3630          27          22
3640          25          22
3650          24          26
3660          25          18
3670          25          23
3680          23          17
3690          27          16
3700          25          20
3710          26          17
3720          24          21
3730          26          18
3740          23          23
3750          26          17
3760          27          20
3770          26          19
3780          25          19
3790          25          20
3800          23          26
3810          25          24
3820          27          23
3830          26          20
3840          26          24
3850          26          25
3860          25          20
3870          24          23
3880          21          28
3890          23          22
3900          22          24
3910          24          26
3920          28          22
3930          27          21
3940          22          24
3950          24          29
3960          24          22
3970          25          22
3980          25          25
3990          29          21
4000          26          23
4010          25          23
4020          28          18
4030          27          22
4040          24          27
4050          29          21
4060          24          28
4070          22          29
4080          27          25
4090          28          22
4100          24          27
4110          27          23
4120          26          20
4130          28          19
4140          27          23
4150          23          27
4160          26          23
4170          25          25
4180          28          21
4190          27          22
4200          28          20
4210          27          21
4220          26          21
4230          24          21
4240          28          23
4250          25          26
4260          25          24
4270          24          26
4280          24          21
4290          25          23
4300          24          26
4310          25          21
4320          24          24
4330          23          28
4340          26          21
4350          25          24
4360          27          25
4370          28          25
4380          27          22
4390          24          23
4400          26          22
4410          24          27
4420          24          26
4430          26          25
4440          25          18
4450          22          28
4460          21          26
4470          23          29
4480          24          24
4490          21          24
4500          25          27
4510          26          19
4520          25          20
4530          22          26
4540          24          26
4550          22          23
4560          24          23
4570          22          28
4580          20          31
4590          25          24
4600          24          29
4610          23          29
4620          23          24
4630          22          25
4640          23          27
4650          24          24
4660          24          21
4670          26          21
4680          27          20
4690          23          26
4700          27          21
4710          24          23
4720          27          22
4730          26          28
4740          27          22
4750          26          29
4760          22          36
4770          23          25
4780          28          27
4790          28          27
4800          29          22
4810          25          27
4820          25          25
4830          27          23
4840          27          26
4850          27          25
4860          27          26
4870          26          23
4880          23          30
4890          28          23
4900          24          24
4910          24          28
4920          22          26
4930          26          24
4940          22          38
4950          25          28
4960          25          26
4970          23          35
4980          23          25
4990          26          25
5000          24          21
5010          23          21
5020          23          27
5030          25          27
5040          26          25
5050          23          27
5060          21          28
5070          23          27
5080          25          22
5090          26          20
5100          25          20
5110          27          24
5120          24          25
5130          22          27
5140          27          26
5150          24          24
5160          27          23
5170          24          24
5180          28          19
5190          28          21
5200          22          27
5210          26          23
5220          24          28
5230          23          28
5240          24          28
5250          23          22
5260          24          21
5270          24          30
5280          25          27
5290          29          22
5300          24          27
5310          28          19
5320          25          23
5330          25          22
5340          27          18
5350          23          25
5360          27          26
5370          26          21
5380          27          24
5390          27          24
5400          28          24
5410          27          19
5420          25          19
5430          26          17
5440          22          23
5450          26          27
5460          24          26
5470          24          27
5480          21          26
5490          27          26
5500          24          24
5510          25          25
5520          24          20
5530          28          28
5540          23          23
5550          23          20
5560          25          17
5570          25          25
5580          26          22
5590          27          20
5600          24          16
5610          26          24
5620          26          19
5630          24          19
5640          26          22
5650          25          25
5660          27          27
5670          28          29
5680          25          28
5690          28          22
5700          22          29
5710          27          23
5720          27          27
5730          28          22
5740          27          23
5750          26          25
5760          28          22
5770          30          24
5780          27          28
5790          22          26
5800          30          23
5810          28          24
5820          26          28
5830          29          25
5840          28          24
5850          28          25
5860          31          21
5870          25          25
5880          29          20
5890          26          27
5900          23          32
5910          23          22
5920          29          28
5930          28          25
5940          30          24
5950          26          27
5960          29          28
5970          25          29
5980          25          26
5990          27          25
6000          26          26
6010          27          28
6020          26          25
6030          30          24
6040          29          23
6050          26          24
6060          28          22
6070          26          23
6080          27          23
6090          27          27
6100          28          25
6110          27          26
6120          33          22
6130          28          22
6140          25          28
6150          29          27
6160          28          27
6170          29          23
6180          27          19
6190          29          21
6200          26          29
6210          27          29
6220          27          29
6230          25          31
6240          30          25
6250          29          20
6260          29          20
6270          26          25
6280          30          25
6290          24          27
6300          28          26
6310          25          28
6320          24          26
6330          25          34
6340          28          29
6350          27          32
6360          28          29
6370          26          33
6380          29          28
6390          27          30
6400          30          27
6410          27          28
6420          28          24
6430          27          32
6440          25          32
6450          26          25
6460          24          30
6470          28          23
6480          28          29
6490          27          24
6500          29          23
6510          24          35
6520          28          26
6530          27          27
6540          28          27
6550          27          30
6560          24          28
6570          27          25
6580          27          30
6590          27          29
6600          32          22
6610          24          26
6620          29          26
6630          28          20
6640          27          25
6650          31          21
6660          28          19
6670          28          28
6680          25          23
6690          27          21
6700          24          23
6710          26          20
6720          24          18
6730          27          21
6740          27          21
6750          25          26
6760          24          30
6770          25          24
6780          24          21
6790          26          24
6800          24          21
6810          29          22
6820          29          22
6830          25          23
6840          28          20
6850          26          25
6860          27          25
6870          29          19
6880          25          22
6890          28          21
6900          27          20
6910          25          26
6920          26          22
6930          25          24
6940          24          22
6950          28          23
6960          30          18
6970          25          27
6980          24          22
6990          28          21
7000          24          22
7010          27          22
7020          27          18
7030          26          19
7040          27          22
7050          30          20
7060          25          24
7070          25          27
7080          24          23
7090          27          21
7100          32          19
7110          30          19
7120          28          27
7130          26          19
7140          27          21
7150          25          23
7160          26          19
7170          27          19
7180          25          18
7190          26          25
7200          26          22
7210          26          25
7220          26          21
7230          27          20
7240          25          22
7250          26          24
7260          27          26
7270          27          22
7280          22          26
7290          26          21
7300          25          29
7310          26          28
7320          24          27
7330          24          25
7340          34          16
7350          31          21
7360          31          26
7370          31          23
7380          30          24
7390          26          27
7400          30          26
7410          28          31
7420          27          21
7430          28          20
7440          29          20
7450          22          24
7460          26          21
7470          24          21
7480          25          26
7490          28          26
7500          26          26
7510          30          20
7520          33          22
7530          29          22
7540          28          24
7550          27          28
7560          27          24
7570          24          29
7580          32          23
7590          31          26
7600          30          25
7610          24          24
7620          23          27
7630          24          22
7640          21          20
7650          24          22
7660          27          19
7670          27          24
7680          27          25
7690          22          19
7700          25          24
7710          24          21
7720          26          23
7730          26          24
7740          26          22
7750          27          21
7760          26          25
7770          23          23
7780          26          16
7790          25          19
7800          25          13
7810          21          22
7820          25          21
7830          23          21
7840          23          16
7850          25          23
7860          26          20
7870          25          23
7880          23          21
7890          26          21
7900          23          22
7910          24          21
7920          23          21
7930          23          21
7940          23          19
7950          23          15
7960          23          24
7970          28          21
7980          23          23
7990          28          22
8000          24          30
8010          23          25
8020          28          23
8030          27          22
8040          26          29
8050          23          21
8060          28          23
8070          27          21
8080          24          22
8090          27          20
8100          25          19
8110          26          21
8120          22          25
8130          24          26
8140          23          24
8150          26          20
8160          24          24
8170          28          19
8180          25          19
8190          25          17
8200          24          20
8210          23          21
8220          24          14
8230          23          23
8240          26          20
8250          21          22
8260          25          17
8270          22          20
8280          25          20
8290          22          22
8300          21          26
8310          23          20
8320          25          26
8330          22          22
8340          25          17
8350          28          19
8360          23          22
8370          25          19
8380          23          17
8390          26          20
8400          23          21
8410          21          21
8420          24          20
8430          25          13
8440          25          16
8450          23          16
8460          20          18
8470          22          20
8480          24          13
8490          22          18
8500          23          14
8510          23          16
8520          23          15
8530          24          10
8540          26          15
8550          24          12
8560          25          12
8570          27          12
8580          23          19
8590          23          19
8600          24          19
8610          22          17
8620          24          24
8630          20          19
8640          21          17
8650          21          19
8660          24          22
8670          26          20
8680          22          20
8690          24          21
8700          23          24
8710          23          24
8720          22          24
8730          23          22
8740          21          19
8750          24          17
8760          25          22
8770          25          25
8780          21          24
8790          24          23
8800          20          26
8810          25          27
8820          24          21
8830          26          19
8840          27          21
8850          24          21
8860          24          23
8870          26          17
8880          25          18
8890          20          22
8900          22          17
8910          22          22
8920          19          27
8930          23          17
8940          20          25
8950          21          19
8960          21          23
8970          24          17
8980          24          17
8990          24          26
9000          24          20
9010          24          16
9020          23          20
9030          22          21
9040          28          21
9050          26          22
9060          24          21
9070          26          24
9080          25          26
9090          23          32
9100          27          20
9110          26          21
9120          22          25
9130          27          22
9140          28          19
9150          28          24
9160          24          22
9170          24          23
9180          25          25
9190          27          18
9200          26          19
9210          26          20
9220          24          20
9230          23          24
9240          30          16
9250          27          16
9260          25          24
9270          27          19
9280          28          23
9290          25          23
9300          24          18
9310          28          15
9320          25          19
9330          26          18
9340          27          21
9350          25          26
9360          28          18
9370          27          26
9380          25          23
9390          25          18
9400          27          24
9410          31          21
9420          27          19
9430          27          21
9440          25          22
9450          25          24
9460          26          22
9470          24          27
9480          28          22
9490          24          26
9500          27          24
9510          29          22
9520          29          19
9530          26          18
9540          27          22
9550          28          25
9560          31          25
9570          24          19
9580          29          24
9590          26          26
9600          27          24
9610          29          21
9620          28          21
9630          26          24
9640          27          13
9650          23          23
9660          26          24
9670          24          20
9680          25          26
9690          24          21
9700          27          19
9710          25          20
9720          27          22
9730          28          19
9740          28          19
9750          24          26
9760          24          24
9770          31          21
9780          26          25
9790          31          18
9800          30          25
9810          28          23
9820          27          24
9830          25          26
9840          26          26
9850          28          23
9860          25          28
9870          26          26
9880          27          28
9890          28          27
9900          25          24
9910          28          20
9920          28          21
9930          29          17
9940          28          22
9950          29          19
9960          29          20
9970          29          17
9980          28          21
9990          30          20
10000          28          21
