Time   C(t)   
ps   
0           1           1  7.78565e-10   0.0478016
10     0.52588    0.880851    0.882669   0.0251423
20    0.497154    0.873632     1.16603    0.002483
30     0.47622    0.868371    0.598641  0.00204588
40    0.456237    0.863349    0.882199  0.00143007
50    0.447618    0.861184    0.597921  0.00109537
60    0.434329    0.857844   -0.479579  0.00108064
70    0.426006    0.855752     0.90968  0.000966486
80       0.415    0.852986  -0.0261795  0.000879394
90    0.408418    0.851332     1.50455  0.000469628
100    0.405607    0.850626    0.681554  0.000916322
110    0.390091    0.846727     1.44788  0.000817169
120    0.389264    0.846519     0.93633  0.000640944
130    0.377272    0.843505    0.993812  0.000820453
140    0.372855    0.842395     1.95704  0.000179404
150    0.373684    0.842604    0.339933  0.000482318
160    0.363208    0.839971     1.13501  0.000953452
170    0.354615    0.837811    0.822669  0.000680612
180    0.349596     0.83655    -0.14117  0.000261112
190    0.349393    0.836499    0.283641  -3.60861e-05
200    0.350318    0.836731   -0.028893  0.000391454
210    0.341564    0.834532    0.339905  0.000493252
220    0.340453    0.834252     1.16202  0.000173236
230    0.338099    0.833661    0.850592  -2.40266e-05
240    0.340933    0.834373     0.25389  7.79018e-05
250    0.336541    0.833269    0.792973  0.000400028
260    0.332933    0.832362   -0.057343  0.000434835
270    0.327845    0.831084  -0.0290866  0.000243004
280    0.328073    0.831141     1.24632  5.09098e-05
290    0.326826    0.830828    0.707208  0.000635868
300    0.315355    0.827945    0.991735  0.000659457
310    0.313637    0.827513     0.79325  6.84261e-06
320    0.315218    0.827911     0.76372  0.00016076
330    0.310422    0.826705     1.10418  0.000548598
340    0.304246    0.825153    0.848987  0.00026422
350    0.305138    0.825377     1.32998  0.000145118
360    0.301344    0.824424    0.451379  0.00035692
370    0.297999    0.823583    0.167959   6.558e-05
380    0.300033    0.824094     1.98209  0.000123298
390    0.295533    0.822964    0.507697  0.00025523
400    0.294928    0.822812    0.904391  0.000405234
410    0.287429    0.820927    0.281205  0.000463285
420    0.285662    0.820483     1.07523  0.000159527
430    0.284238    0.820125     1.41489  9.06736e-05
440    0.283849    0.820027    0.337911  0.000217791
450    0.279882    0.819031     1.18776  0.000270054
460    0.278448     0.81867    0.508057  0.000253427
470    0.274814    0.817757     1.58559  0.000201745
480    0.274413    0.817656     2.12323  0.000231311
490    0.270187    0.816594     1.75559  0.00017945
500    0.270824    0.816754      1.4714  0.000226483
510    0.265658    0.815456     1.69933  8.72359e-05
520    0.269079    0.816316     1.47162  -0.000139023
530    0.268438    0.816155     1.35768  0.000314643
540    0.262786    0.814734     1.78402  0.000519116
550    0.258056    0.813546     1.69927  -2.83316e-05
560    0.263353    0.814877     1.89651  -0.000203097
570    0.262118    0.814566     2.17966  0.000164521
580    0.260062     0.81405     2.26515  0.00040489
590     0.25402    0.812531     2.52084  0.000294198
600    0.254178    0.812571     2.57743  4.8776e-05
610    0.253045    0.812286     2.09514  -0.000303602
620    0.260251    0.814097     1.95211  1.93417e-06
630    0.253006    0.812276     1.64074  0.000165978
640    0.256931    0.813263    0.619864  -0.00010417
650    0.255089      0.8128     2.54782  0.000449812
660    0.247935    0.811002     1.38547  0.00023201
670    0.250449    0.811634     1.18695  -1.52975e-05
680    0.248241    0.811079     1.38555  0.000114653
690    0.248156    0.811058    0.449164  -7.45103e-05
700    0.249731    0.811453     2.23581  0.000245588
710    0.243244    0.809823     1.10116  0.000649364
720    0.236744     0.80819     1.58356  0.00035366
730    0.236171    0.808046      1.6121  3.65302e-06
740    0.236671    0.808171     2.06492  0.000206169
750    0.232048     0.80701     1.81042  0.000295906
760    0.230752    0.806684     1.86685  3.41654e-05
770    0.231364    0.806838     1.01562  0.000237393
780    0.226005    0.805491     1.55462  0.000458802
790    0.222188    0.804532     1.32751  0.000106684
800    0.223871    0.804955     1.58298  0.000179273
810    0.218603    0.803631      2.2639  0.000473198
820    0.214407    0.802576     1.95192  0.000101798
830    0.216567    0.803119     2.26304  -0.000216261
840    0.218732    0.803663     2.85841  4.20518e-05
850    0.215726    0.802908     2.12168  0.000174458
860    0.215243    0.802786     2.06467  1.81913e-05
870    0.215362    0.802816     2.71655  0.00012688
880    0.212705    0.802149      2.5466  -4.8361e-05
890    0.216329    0.803059     1.69482  0.00013964
900    0.209913    0.801447     1.69592  0.000418137
910    0.207967    0.800958     2.00763  -0.000157108
920    0.213055    0.802236     1.38292  -2.34336e-05
930    0.208435    0.801076     2.12093  0.000188819
940    0.209278    0.801287     2.03555  4.34399e-05
950    0.207566    0.800857     1.52453  0.000415137
960    0.200976    0.799201      1.7518  0.000482875
970    0.197909     0.79843      1.6385  0.000117701
980    0.198622    0.798609     1.52437  -0.000205848
990    0.202026    0.799465    0.617317  -1.64486e-05
1000    0.198951    0.798692     2.26163  0.000265037
1010    0.196725    0.798133     2.37499  0.000106174
1020    0.196827    0.798158    0.560278  2.67304e-05
1030    0.196191    0.797998     2.09093  0.000383378
1040     0.18916    0.796232    0.986059  0.000211458
1050    0.191961    0.796936     1.63742  0.000120073
1060    0.186758    0.795628     1.52464  0.00029268
1070    0.186108    0.795465    0.674133  0.000108261
1080    0.184593    0.795084     1.07091  -5.23217e-05
1090    0.187154    0.795728     1.41043  0.000133533
1100    0.181922    0.794413       1.354  0.000418398
1110    0.178786    0.793625     1.94923  -0.000157452
1120    0.185071    0.795204    0.559364  0.000153254
1130    0.175721    0.792854     1.35386  0.000127804
1140    0.182515    0.794562     2.51544  -0.000169703
1150    0.179115    0.793707     1.21183  2.87466e-05
1160     0.18194    0.794417     1.15468  -0.000220459
1170    0.183524    0.794815     2.06181  5.38044e-05
1180    0.180864    0.794147     1.86333  0.000335076
1190    0.176823    0.793131     1.77911  2.2769e-05
1200    0.180409    0.794032     1.66473  -3.94315e-05
1210    0.177611    0.793329     1.97658  0.000311524
1220    0.174178    0.792467     1.29641  0.000224242
1230    0.173127    0.792202     2.00511  -0.000196528
1240    0.178109    0.793454     2.11783  0.000111937
1250    0.170888     0.79164     1.83502  0.000287984
1260    0.172349    0.792007     2.14658  -8.94994e-05
1270    0.172678     0.79209     1.66432  0.000371436
1280     0.16492     0.79014     1.63659  0.000308583
1290    0.166506    0.790539     1.69291  -0.000222059
1300    0.169362    0.791256     1.21036  0.000221242
1310    0.162081    0.789427     1.77856  1.1728e-05
1320    0.169127    0.791197     1.89048  -0.000222535
1330    0.166532    0.790545     1.83408  0.000113515
1340    0.166857    0.790627     1.94735  0.000184064
1350    0.162851     0.78962     1.35187  0.000420141
1360    0.158454    0.788515      1.1533  0.000216724
1370    0.158516    0.788531      2.1175  8.97251e-05
1380    0.156659    0.788064     1.49365  8.34636e-05
1390    0.156847    0.788111     1.94718  -0.000140435
1400    0.159468     0.78877     2.45748  -0.000217554
1410    0.161198    0.789205     1.37993  0.000250581
1420    0.154457     0.78751     1.46547  0.000282802
1430    0.155542    0.787783     1.80563  -0.000275935
1440    0.159975    0.788897     2.17332  -0.000179759
1450    0.159137    0.788687      2.4569  0.000225843
1460    0.155458    0.787762     1.43603  0.000381267
1470    0.151512     0.78677      2.6553  0.000485591
1480    0.145747    0.785322     2.23071  0.000324771
1490    0.145017    0.785138     2.68389  -0.000276919
1500    0.151285    0.786713      1.9171  -6.95407e-05
1510    0.146407    0.785488     1.94641  0.000611806
1520    0.139049    0.783638      1.8051  2.12274e-05
1530    0.145983    0.785381     1.80399  2.59727e-06
1540    0.138997    0.783625     1.32239  -3.08573e-05
1550      0.1466    0.785536     1.69055  -0.000206263
1560    0.143122    0.784662      1.8041  0.000504898
1570    0.136502    0.782998     1.71922  0.000401155
1580    0.135099    0.782646     2.14409  -0.000213237
1590    0.140767     0.78407      1.4063  -0.000521548
1600     0.14553    0.785267     1.66147  0.000166524
1610    0.137436    0.783233     2.28534  0.000501434
1620    0.135501    0.782747     2.03051  0.000391146
1630    0.129613    0.781267     2.08761  -0.000108972
1640    0.137681    0.783295     2.17215  -0.000444926
1650    0.138512    0.783503     1.46295  8.20048e-05
1660    0.136041    0.782882     1.83131  0.00026722
1670    0.133167     0.78216     1.32117  0.000128813
1680    0.133464    0.782235     1.88788  2.98724e-05
1690     0.13257     0.78201     1.80305  2.3184e-05
1700    0.133001    0.782118     1.29209  0.000275876
1710    0.127052    0.780624     1.32126  0.000382607
1720    0.125349    0.780195     1.46306  2.41093e-05
1730     0.12657    0.780502     2.48278  7.76291e-05
1740    0.123796    0.779805     2.28388  0.000277845
1750    0.121013    0.779106     2.51178  0.000211826
1760    0.119559    0.778741     2.08625  0.000205706
1770    0.116899    0.778072     2.08622  8.54444e-05
1780    0.117851    0.778311     1.46251  0.000159694
1790    0.113705    0.777269     2.82315  7.91587e-05
1800    0.116267    0.777913     2.62461  0.000382441
1810    0.106057    0.775347     3.07865  0.000200702
1820    0.112253    0.776905     1.91511  -0.000175359
1830    0.109564    0.776229     1.60337  -6.15604e-05
1840    0.113485    0.777214     1.63158  3.33712e-05
1850    0.108896    0.776061     1.77363  -6.17973e-05
1860    0.114721    0.777525     2.34003  -0.000190135
1870    0.112699    0.777017     1.80161  0.000141348
1880    0.111894    0.776814     1.80175  -0.000109554
1890     0.11489    0.777567     1.88607  -7.54222e-06
1900    0.112044    0.776852     1.57451  0.000135098
1910    0.112188    0.776888      2.0278  0.000190088
1920    0.108243    0.775897     2.28382  6.01262e-06
1930    0.112068    0.776858     1.29067  -0.00013696
1940    0.110982    0.776585     1.23436  -9.65919e-05
1950       0.114    0.777343     1.54578  -0.000185641
1960    0.114695    0.777518    0.978167  2.64101e-05
1970    0.113472    0.777211     1.20568  8.13056e-05
1980    0.113069    0.777109     1.43129  0.000109068
1990     0.11129    0.776663     1.23366  0.000350327
2000    0.106062    0.775349     2.14116  0.000254494
2010      0.1062    0.775383     2.22592  -2.08125e-05
2020    0.106478    0.775453     1.97087  -0.000110751
2030    0.108415     0.77594     2.02716  -5.54528e-05
2040    0.107587    0.775732     3.01984  0.000450144
2050   0.0994124    0.773678     2.79351  0.000277323
2060    0.102041    0.774338     1.60163  2.16428e-05
2070   0.0989796    0.773569     2.48134  0.000139593
2080    0.099249    0.773637     2.28252  -2.70031e-05
2090   0.0995196    0.773705     1.48791  4.26687e-05
2100   0.0983956    0.773422     2.50898  2.17732e-05
2110   0.0990842    0.773595     2.33837  -0.000292669
2120    0.104249    0.774893     2.16753  2.88412e-05
2130   0.0985074     0.77345     2.87717  0.000196409
2140    0.100321    0.773906     2.76368  -0.000167544
2150    0.101858    0.774292     2.56486  3.58496e-05
2160   0.0996038    0.773726     2.84903  0.000127152
2170   0.0993152    0.773653      1.8843  0.000353007
2180   0.0925437    0.771951     2.67885  0.000261883
2190   0.0940775    0.772337     3.07519  -0.000118353
2200   0.0949108    0.772546     2.22393  0.000475309
2210   0.0845714    0.769948     2.45159  0.000348359
2220   0.0879436    0.770795     2.36632  -0.000309271
2230   0.0907568    0.771502      1.8266  0.000122954
2240   0.0854845    0.770177     2.50815  0.000364463
2250   0.0834675    0.769671     2.33765  0.000180636
2260   0.0818718     0.76927     2.33795  -0.000125421
2270   0.0859759    0.770301     2.70578  -0.000168208
2280   0.0852359    0.770115     2.81933  0.000202647
2290    0.081923    0.769282     2.79108  -0.000118982
2300   0.0876156    0.770713     2.47829  8.19102e-05
2310   0.0802848    0.768871     3.13101  0.000217554
2320   0.0832645     0.76962      2.4507  1.05191e-05
2330   0.0800744    0.768818     2.42208  -1.14083e-05
2340   0.0834927    0.769677     2.56328  -0.000191037
2350   0.0838952    0.769778     1.85486  6.06231e-05
2360   0.0822802    0.769372     2.61999  0.00016171
2370    0.080661    0.768965     2.81864  0.000176569
2380   0.0787488    0.768485     2.02423  -9.08047e-05
2390   0.0824771    0.769422     2.78908  0.000112281
2400   0.0765032     0.76792     2.59154  0.00046026
2410   0.0732718    0.767108     2.73359  0.000149257
2420    0.073518     0.76717     2.67653  -0.000126631
2430   0.0758045    0.767745     2.90277  -0.000352853
2440   0.0805751    0.768944     2.16518  0.000186388
2450   0.0720767    0.766808     1.51415  0.000397918
2460   0.0726168    0.766944     2.64761  9.95919e-05
2470   0.0700849    0.766307     1.93949  0.000209525
2480   0.0684263    0.765891     2.93133  0.000129453
2490   0.0674958    0.765657     2.42156  0.000166572
2500   0.0650948    0.765053     1.96735  0.000306627
2510   0.0613633    0.764116     1.88275  5.45532e-06
2520   0.0649857    0.765026     2.93161  -9.72914e-05
2530   0.0633091    0.764605     3.01657  -9.33297e-06
2540   0.0651724    0.765073      3.0725  1.3116e-05
2550   0.0630468    0.764539     3.32794  3.51146e-05
2560   0.0644701    0.764896     3.10098  0.000153989
2570    0.059967    0.763765     2.47788  0.000131765
2580   0.0618348    0.764234     2.61924  -0.000253961
2590   0.0650462    0.765041     2.67536  -5.36028e-05
2600   0.0629068    0.764504     2.42031  0.000199338
2610   0.0610594    0.764039      2.7611  5.06025e-05
2620   0.0618948    0.764249     2.42017  6.58294e-05
2630   0.0597429    0.763708     2.44865  0.000237963
2640   0.0571355    0.763053     2.25006  0.000328625
2650   0.0531704    0.762057     1.79671  0.00024681
2660   0.0521993    0.761813     2.59043  0.000127401
2670   0.0506223    0.761416     2.64703  -4.5337e-05
2680   0.0531061    0.762041     2.10825  1.50846e-05
2690   0.0503206    0.761341     2.73188  0.000527892
2700   0.0425482    0.759387     2.10844  0.000181372
2710   0.0466932    0.760429     1.76793  -0.000415042
2720   0.0508491    0.761473     2.36286  0.00010666
2730     0.04456    0.759893     2.56187  0.000136545
2740   0.0481182    0.760787     1.99448  0.000251601
2750    0.039528    0.758628     2.47669  0.000266686
2760   0.0427845    0.759447     2.02282  -0.000127994
2770   0.0420879    0.759272     2.16476  0.000191855
2780   0.0389474    0.758482     1.68214  8.82298e-06
2790   0.0419114    0.759227     1.99387  -0.000281462
2800   0.0445766    0.759897     1.59654  -0.000167331
2810    0.045258    0.760068     1.73867  0.000100576
2820   0.0425651    0.759392     2.33408  0.000477135
2830   0.0357153     0.75767     2.13584  0.000270445
2840   0.0371562    0.758032     2.44801  -0.000121235
2850     0.03814     0.75828     1.51207  0.000163927
2860   0.0338776    0.757208     1.79541  7.90877e-05
2870   0.0365582    0.757882    0.774366  -0.000144668
2880    0.036771    0.757935     1.02972  0.000141442
2890   0.0337294    0.757171     1.19948  5.63066e-05
2900   0.0356449    0.757652     1.70992  -0.000129666
2910   0.0363227    0.757823      2.0214  0.000103256
2920   0.0335797    0.757133      2.0778  0.00064092
2930   0.0235043    0.754601     2.02198  0.00027552
2940   0.0280693    0.755749     1.93638  -0.000183672
2950   0.0271778    0.755525     1.65308  -2.8094e-05
2960   0.0286312     0.75589     1.70984  9.73625e-05
2970   0.0252305    0.755035     2.30538  1.10289e-05
2980   0.0284106    0.755834     2.67365  -2.77738e-05
2990    0.025786    0.755175     2.95737  -0.000122788
3000   0.0308664    0.756452     2.92851  -0.000232875
3010   0.0304435    0.756345      2.5594  4.23604e-05
3020   0.0300192    0.756239     2.10556  0.000477147
3030   0.0209006    0.753947     2.21997  0.000327487
3040   0.0234695    0.754593      2.3046  -0.000384125
3050   0.0285831    0.755878     2.44577  -0.000131007
3060   0.0260896    0.755251     2.70102  0.000273457
3070   0.0231139    0.754503     1.93567  3.53043e-05
3080   0.0253835    0.755074     1.76505  0.000203311
3090   0.0190477    0.753482     1.79386  0.000386912
3100   0.0176453    0.753129     2.07783  -9.13144e-05
3110    0.020874     0.75394     1.99198  6.09198e-05
3120   0.0164269    0.752823     2.27565  8.44954e-05
3130   0.0191841    0.753516     2.84241  -0.000187728
3140   0.0201814    0.753766     1.76477  0.000117214
3150   0.0168398    0.752927     2.52999  0.000181621
3160    0.016549    0.752854     1.87824  -0.000132192
3170   0.0194836    0.753591     2.21767  -2.72876e-05
3180   0.0170948    0.752991     1.84948  6.92685e-05
3190   0.0180983    0.753243     2.19011  -1.12779e-05
3200   0.0173203    0.753047     2.21806  0.000353731
3210   0.0110237    0.751465     1.79319  0.000281153
3220   0.0116973    0.751634     1.62296  -5.11005e-05
3230   0.0120457    0.751722     1.79231  -0.000132738
3240    0.014352    0.752301      2.5296  -0.000141241
3250   0.0148705    0.752432     1.67901  8.71282e-05
3260   0.0126095    0.751864     2.10396  0.000250949
3270  0.00985152     0.75117     2.24599  0.00011221
3280   0.0103653      0.7513      1.6218  -0.000363384
3290   0.0171192    0.752997     1.87694  -0.000141988
3300    0.013205    0.752013     2.55716  0.000433293
3310  0.00845334    0.750819     2.89795  0.000145818
3320   0.0102886     0.75128     2.89757  7.23755e-05
3330  0.00700583    0.750455     2.92635  0.000237678
3340  0.00553507    0.750086     2.86981  0.000172205
3350  0.00356174     0.74959     3.01134  2.33741e-05
3360  0.00506759    0.749968     2.44453  -0.000200595
3370  0.00757364    0.750598     2.78399  -0.000184502
3380  0.00875764    0.750896     2.86967  -0.000201876
3390   0.0116112    0.751613     3.01087  0.000123239
3400  0.00629287    0.750276     3.09633  -7.75935e-05
3410    0.013163    0.752003     3.54976  -0.000219309
3420    0.010679    0.751378     2.92571  2.24609e-05
3430   0.0127138     0.75189     3.60624  6.13113e-06
3440   0.0105564    0.751348     3.57796  0.000291755
3450   0.0068787    0.750423     3.46468  -8.65471e-05
3460   0.0122874    0.751783     3.32246  -0.000187337
3470   0.0106254    0.751365     3.52075  0.000403029
3480  0.00422679    0.749757     3.32301  5.69351e-05
3490  0.00948673    0.751079     3.43582  -0.00023016
3500  0.00882998    0.750914     3.46435  -0.000392593
3510   0.0173386    0.753052     3.37859  -0.000129583
3520   0.0114217    0.751565      3.1522  0.000379773
3530  0.00974313    0.751143     3.06707  -0.000130378
3540   0.0140292     0.75222     3.43549  9.17176e-05
3550  0.00790877    0.750682      3.4641  0.000313718
3560  0.00775484    0.750644     3.35047  9.23817e-05
3570  0.00606114    0.750218      3.1806  -0.000216451
3580   0.0120839    0.751731     2.81086  -0.000353991
3590    0.013141    0.751997      2.3292  0.000238402
3600  0.00731582    0.750533     2.98181  -5.44684e-05
3610   0.0142303    0.752271     2.58409  -8.82073e-05
3620  0.00907997    0.750977     3.15159  0.000265144
3630  0.00892746    0.750938      3.2362  -8.86698e-05
3640   0.0108534    0.751422     2.83862  0.000284237
3650  0.00324273     0.74951     2.98139  0.000206121
3660  0.00673094    0.750386     3.34969  -0.000210106
3670  0.00744485    0.750566     2.86759  5.05313e-05
3680  0.00572031    0.750132     3.51934  0.000172774
3690  0.00398937    0.749697     3.43482  -0.000106494
3700  0.00785019    0.750668     3.54809  3.36796e-05
3710  0.00331578    0.749528     2.89618  -6.33982e-05
3720  0.00911816    0.750986     3.51948  -0.000212098
3730  0.00755775    0.750594     3.12212  0.000217826
3740  0.00476163    0.749891     3.26409  -4.6013e-05
3750  0.00847801    0.750825     3.88769  -0.000222167
3760  0.00920497    0.751008     3.29249  0.000121745
3770  0.00604312    0.750213     3.83124  0.000183815
3780  0.00552867    0.750084     3.80293  6.03979e-05
3790  0.00483516     0.74991     3.80248  5.1729e-05
3800  0.00449409    0.749824     3.91587  -9.93785e-05
3810  0.00682273    0.750409     3.51879  6.09553e-05
3820  0.00327498    0.749518     3.40537  0.000158958
3830  0.00364356     0.74961     3.46167  -9.96276e-05
3840  0.00526754    0.750018     2.89457  0.000285269
3850  -0.00206181    0.748177     3.88728  0.000231737
3860  0.000632797    0.748854     3.83027  -7.22688e-05
3870  -0.000616431     0.74854     4.08538  -2.78094e-05
3880  0.00118898    0.748994     4.36899  -2.76434e-05
3890  -6.35643e-05    0.748679     4.00022  8.03448e-05
3900  -0.000417912     0.74859     3.91515  -0.000100232
3910  0.00194108    0.749183      4.3686  -9.12907e-05
3920   0.0014079    0.749049     4.59562  0.000325779
3930  -0.00457449    0.747545      3.5753  -5.54646e-05
3940  0.00251719    0.749327     4.53853  9.10179e-05
3950  -0.00639485    0.747088      3.5179  0.000372835
3960  -0.00493952    0.747453      3.7727  -0.000100161
3970  -0.00439163    0.747591     3.48909  -9.14923e-05
3980  -0.00310967    0.747913      3.7445  3.66681e-05
3990  -0.00512499    0.747407      3.6876  2.73825e-05
4000  -0.00365732    0.747776      3.8862  0.000220862
4010  -0.00954224    0.746297     3.99981  0.000340721
4020  -0.0104717    0.746063     3.54607  -1.75869e-05
4030  -0.0091905    0.746385     3.51743  3.79844e-05
4040  -0.0112314    0.745872     3.85756  1.9342e-05
4050  -0.00957734    0.746288     3.23346  1.03767e-05
4060   -0.011439     0.74582     3.09204  2.86988e-05
4070  -0.0101513    0.746144     3.09223  -0.000343058
4080  -0.00457782    0.747544     3.71506  0.000131422
4090  -0.0127797    0.745483     3.60214  0.000382892
4100  -0.0122357     0.74562     3.60223  -1.72548e-05
4110  -0.0124346     0.74557      3.2613  4.81357e-05
4120  -0.0131984    0.745378     3.09132  0.000160927
4130  -0.0156532    0.744761     3.20517  0.000161318
4140  -0.0164247    0.744567     2.97813  4.90133e-05
4150  -0.0166334    0.744515     3.26138  0.000181289
4160  -0.0200505    0.743656     3.63004  -5.45989e-05
4170  -0.0155415    0.744789     2.72282  -0.000101489
4180  -0.0180207    0.744166     3.43136  0.000238971
4190  -0.0203209    0.743588     3.14833  -0.000387031
4200  -0.0102801    0.746111     3.03361  -0.000425442
4210   -0.011812    0.745726     2.63706  0.000210663
4220  -0.0144934    0.745052     2.94879  0.000163666
4230  -0.0150854    0.744904     3.31756  0.000480005
4240  -0.0240935     0.74264     3.57336  0.000461707
4250  -0.0243195    0.742583     3.74315  9.94141e-05
4260  -0.0260818     0.74214     3.71461  0.00033995
4270  -0.0311185    0.740874     3.45987  -8.29063e-05
4280  -0.0244236    0.742557     3.06237  -0.00038122
4290  -0.0234941    0.742791     3.68525  0.000138857
4300  -0.0272008    0.741859     3.71389  0.00032285
4310  -0.0299511    0.741168     3.11866  0.000227053
4320  -0.0317418    0.740718     3.96939  -0.000141229
4330  -0.0271265    0.741878     4.33747  0.000296819
4340  -0.0376782    0.739226      3.9979  0.00026729
4350  -0.0324723    0.740534       3.572  1.56894e-05
4360   -0.037992    0.739147     3.20398  -0.0002005
4370  -0.0284623    0.741542     4.11067  -0.000346912
4380  -0.0310538    0.740891     4.16768  -7.43086e-05
4390  -0.0269762    0.741915      4.4224  -0.000231357
4400  -0.0264266    0.742054      3.9403  7.30634e-05
4410  -0.0284374    0.741548     3.31656  -0.000351465
4420  -0.0193973     0.74382     3.59976  -2.53546e-05
4430  -0.0279303    0.741676     3.57173  0.000587294
4440  -0.0311432    0.740868     3.42973  -5.52867e-05
4450  -0.0268246    0.741954     3.96795  -7.47235e-05
4460  -0.0296487    0.741244     3.85495  5.38636e-05
4470  -0.0279019    0.741683     3.91166  0.000134339
4480  -0.0323355    0.740569     4.13893  -0.000225724
4490  -0.0233874    0.742817     4.53507  -0.00016522
4500  -0.0290311    0.741399     4.22353  0.00039481
4510  -0.0312836    0.740833     3.88324  0.000165362
4520  -0.0323383    0.740568     4.13826  -3.53636e-05
4530  -0.0305763    0.741011     3.51436  3.53517e-05
4540  -0.0330454     0.74039     4.10981  0.000560742
4550  -0.0417912    0.738192     4.16691  8.63217e-05
4560  -0.0347718    0.739956     4.93179  -0.000632216
4570  -0.0291468     0.74137     4.42105  -0.000116384
4580  -0.0324441    0.740541     4.30819  0.000248921
4590  -0.0341253    0.740119     4.08111  0.000107217
4600  -0.0345885    0.740002     4.36445  5.66149e-05
4610  -0.0352576    0.739834     4.36481  6.70509e-05
4620  -0.0359295    0.739665     3.88224  0.000118602
4630  -0.0376296    0.739238     4.47767  0.000211458
4640  -0.0401586    0.738603     4.50634  0.000160666
4650  -0.0408429    0.738431     4.50626  -3.45808e-05
4660   -0.039467    0.738776     4.53421  -4.48033e-05
4670  -0.0399468    0.738656     4.19397  3.76286e-05
4680  -0.0402196    0.738587     3.54145  0.000141525
4690  -0.0427774    0.737945     4.05203  8.99268e-05
4700  -0.0420181    0.738135     3.96709  -7.60637e-05
4710  -0.0412561    0.738327     3.91016  0.000194962
4720  -0.0459174    0.737155     3.71212  0.000122005
4730  -0.0436962    0.737714     3.25836  -0.000191084
4740  -0.0420957    0.738116     4.10862  0.000133402
4750  -0.0463642    0.737043      3.7688  0.000133331
4760  -0.0447623    0.737446     3.08791  -0.00010787
4770  -0.0442068    0.737585     3.57001  -0.000118887
4780  -0.0423846    0.738043     3.93834  -7.69058e-05
4790  -0.0426687    0.737972     3.68287  0.000399293
4800  -0.0503704    0.736036     3.31457  0.000485069
4810  -0.0523701    0.735534     3.40025  -0.000459074
4820   -0.041189    0.738344     3.37078  9.21451e-06
4830  -0.0525544    0.735488     3.59827  -0.000110301
4840  -0.0389829    0.738898      3.5684  -0.000151084
4850  -0.0495327    0.736247     3.56973  0.000767658
4860  -0.0543361     0.73504     3.34341  0.000191369
4870  -0.0533601    0.735285     3.28623  -0.000140873
4880  -0.0515186    0.735748     3.08705  4.19453e-05
4890   -0.054199    0.735074     3.54112  0.000279303
4900  -0.0571047    0.734344     3.76753  0.000117997
4910  -0.0565589    0.734481     3.56915  0.000140482
4920  -0.0599143    0.733638     4.36298  0.000151546
4930  -0.0595899    0.733719     3.96604  8.71755e-05
4940  -0.0616578      0.7332     4.30597  2.18205e-05
4950  -0.0600263     0.73361     3.39889  0.000142557
4960   -0.064509    0.732483       3.796  0.000405305
4970  -0.0681324    0.731573     3.17213  5.58797e-05
4980  -0.0656266    0.732202     3.85232  -9.19066e-06
4990  -0.0679486    0.731619     3.48388  -7.42611e-05
