Time   Number   
ps   
0          31          23
10          35          24
20          42          23
30          36          26
40          37          26
50          35          26
60          35          27
70          33          25
80          33          26
90          38          27
100          39          25
110          36          25
120          38          28
130          38          25
140          36          33
150          37          26
160          39          25
170          35          27
180          37          24
190          38          24
200          41          22
210          37          25
220          37          22
230          34          28
240          37          27
250          35          26
260          38          25
270          35          26
280          33          31
290          38          25
300          41          24
310          42          26
320          37          30
330          42          24
340          39          28
350          40          24
360          40          26
370          37          29
380          37          25
390          40          25
400          41          26
410          41          24
420          39          28
430          40          20
440          41          27
450          44          23
460          37          29
470          41          26
480          41          26
490          41          28
500          41          24
510          39          21
520          44          27
530          37          27
540          36          25
550          41          22
560          39          26
570          37          24
580          40          28
590          37          26
600          34          23
610          41          25
620          40          27
630          41          27
640          36          32
650          37          29
660          38          24
670          40          23
680          39          24
690          37          25
700          37          24
710          38          23
720          35          25
730          40          26
740          35          32
750          39          24
760          37          30
770          38          23
780          40          26
790          38          25
800          39          30
810          39          28
820          42          27
830          39          24
840          37          25
850          38          25
860          37          24
870          38          27
880          37          27
890          37          25
900          35          25
910          39          25
920          35          29
930          37          28
940          37          25
950          36          27
960          38          22
970          36          27
980          35          28
990          36          24
1000          36          23
1010          36          18
1020          38          25
1030          40          24
1040          37          25
1050          39          24
1060          39          29
1070          41          24
1080          36          24
1090          38          27
1100          37          31
1110          38          26
1120          38          30
1130          34          26
1140          39          26
1150          39          25
1160          38          25
1170          38          24
1180          34          23
1190          40          25
1200          37          30
1210          39          26
1220          42          25
1230          39          24
1240          38          24
1250          35          22
1260          35          22
1270          35          24
1280          40          21
1290          39          19
1300          36          23
1310          35          25
1320          35          25
1330          34          27
1340          33          27
1350          37          25
1360          36          24
1370          34          21
1380          34          20
1390          33          25
1400          38          23
1410          37          20
1420          34          22
1430          38          26
1440          37          25
1450          36          27
1460          38          27
1470          37          22
1480          38          25
1490          38          27
1500          38          25
1510          36          23
1520          35          19
1530          36          21
1540          33          24
1550          36          24
1560          35          25
1570          37          21
1580          39          22
1590          37          24
1600          37          23
1610          37          26
1620          38          27
1630          37          26
1640          35          27
1650          36          30
1660          37          24
1670          37          26
1680          37          19
1690          38          24
1700          41          24
1710          38          23
1720          37          22
1730          36          23
1740          35          24
1750          32          27
1760          36          22
1770          36          19
1780          39          19
1790          35          23
1800          34          24
1810          37          21
1820          37          20
1830          35          21
1840          34          29
1850          38          22
1860          35          24
1870          37          26
1880          36          23
1890          34          24
1900          37          25
1910          35          22
1920          35          21
1930          37          20
1940          34          23
1950          38          23
1960          36          25
1970          34          25
1980          37          24
1990          34          27
2000          36          27
2010          36          32
2020          32          30
2030          37          30
2040          36          25
2050          36          28
2060          34          31
2070          35          30
2080          37          23
2090          33          24
2100          34          27
2110          35          21
2120          31          27
2130          32          32
2140          35          29
2150          33          26
2160          34          26
2170          35          27
2180          38          22
2190          33          27
2200          32          23
2210          34          26
2220          34          24
2230          35          26
2240          36          25
2250          32          29
2260          33          27
2270          37          25
2280          30          26
2290          37          22
2300          33          27
2310          36          31
2320          37          29
2330          32          28
2340          36          26
2350          35          26
2360          33          27
2370          35          28
2380          33          27
2390          36          22
2400          33          25
2410          37          25
2420          35          22
2430          34          26
2440          32          25
2450          29          22
2460          34          28
2470          36          23
2480          33          28
2490          33          26
2500          31          27
2510          34          24
2520          36          24
2530          36          28
2540          34          22
2550          38          26
2560          35          22
2570          35          30
2580          36          24
2590          34          29
2600          34          25
2610          39          23
2620          38          22
2630          32          25
2640          34          21
2650          33          26
2660          35          24
2670          35          19
2680          34          23
2690          37          31
2700          36          22
2710          34          27
2720          33          27
2730          36          26
2740          33          24
2750          34          24
2760          30          25
2770          35          26
2780          33          26
2790          36          24
2800          35          20
2810          35          22
2820          34          25
2830          34          25
2840          34          21
2850          34          22
2860          32          25
2870          33          24
2880          35          24
2890          34          26
2900          32          27
2910          34          21
2920          32          28
2930          35          24
2940          33          28
2950          35          25
2960          38          26
2970          35          26
2980          34          26
2990          35          26
3000          35          25
3010          33          33
3020          37          29
3030          38          23
3040          36          23
3050          36          23
3060          37          22
3070          31          27
3080          35          31
3090          35          23
3100          37          23
3110          35          24
3120          38          19
3130          35          22
3140          33          24
3150          34          25
3160          35          27
3170          37          25
3180          36          23
3190          35          25
3200          36          24
3210          33          26
3220          34          25
3230          37          27
3240          39          25
3250          39          23
3260          35          28
3270          35          25
3280          33          29
3290          37          32
3300          35          28
3310          35          25
3320          35          24
3330          33          28
3340          33          24
3350          34          28
3360          33          24
3370          34          25
3380          34          28
3390          33          27
3400          37          27
3410          35          27
3420          36          23
3430          34          26
3440          33          23
3450          31          26
3460          34          20
3470          37          22
3480          35          26
3490          33          23
3500          38          21
3510          38          22
3520          37          23
3530          37          25
3540          35          27
3550          32          26
3560          35          21
3570          38          24
3580          36          25
3590          37          30
3600          32          29
3610          38          27
3620          39          27
3630          34          29
3640          35          25
3650          33          31
3660          35          28
3670          33          26
3680          38          27
3690          34          25
3700          37          27
3710          33          29
3720          32          24
3730          30          24
3740          30          26
3750          35          21
3760          35          23
3770          31          32
3780          29          29
3790          30          20
3800          37          28
3810          35          29
3820          35          24
3830          36          28
3840          33          24
3850          33          26
3860          37          26
3870          35          27
3880          35          31
3890          37          27
3900          35          19
3910          35          25
3920          39          24
3930          38          27
3940          39          26
3950          35          25
3960          34          33
3970          37          28
3980          38          32
3990          36          24
4000          35          26
4010          36          28
4020          35          28
4030          37          23
4040          34          20
4050          34          23
4060          36          22
4070          36          26
4080          32          31
4090          38          26
4100          33          27
4110          37          28
4120          37          24
4130          32          22
4140          35          26
4150          36          22
4160          33          25
4170          34          24
4180          32          26
4190          32          21
4200          34          21
4210          34          24
4220          31          26
4230          36          22
4240          32          25
4250          33          22
4260          33          23
4270          38          24
4280          37          23
4290          35          25
4300          35          23
4310          36          25
4320          35          29
4330          33          27
4340          34          31
4350          33          26
4360          35          25
4370          32          24
4380          32          18
4390          35          23
4400          33          21
4410          30          28
4420          36          19
4430          38          22
4440          34          24
4450          32          26
4460          38          25
4470          38          30
4480          38          27
4490          35          30
4500          35          31
4510          36          23
4520          36          23
4530          32          24
4540          32          26
4550          33          25
4560          36          28
4570          37          23
4580          38          27
4590          35          25
4600          36          24
4610          35          25
4620          38          28
4630          34          28
4640          37          25
4650          38          26
4660          40          24
4670          39          26
4680          41          27
4690          43          27
4700          42          29
4710          40          31
4720          41          30
4730          42          27
4740          40          30
4750          42          29
4760          43          27
4770          39          29
4780          43          28
4790          39          34
4800          41          34
4810          41          33
4820          41          31
4830          37          31
4840          38          31
4850          38          33
4860          38          25
4870          41          29
4880          41          28
4890          39          26
4900          38          26
4910          38          27
4920          38          29
4930          37          29
4940          39          30
4950          39          31
4960          37          29
4970          34          32
4980          39          28
4990          39          30
5000          36          34
5010          42          28
5020          38          25
5030          38          27
5040          33          32
5050          38          26
5060          38          27
5070          39          24
5080          39          25
5090          39          24
5100          41          25
5110          39          25
5120          41          25
5130          37          24
5140          42          22
5150          38          26
5160          38          26
5170          40          24
5180          36          23
5190          36          26
5200          38          26
5210          33          33
5220          37          23
5230          36          25
5240          36          29
5250          39          28
5260          40          27
5270          38          26
5280          41          25
5290          41          29
5300          39          29
5310          37          28
5320          34          31
5330          37          23
5340          37          25
5350          35          26
5360          34          25
5370          34          28
5380          32          29
5390          37          24
5400          33          26
5410          32          30
5420          36          25
5430          38          25
5440          36          28
5450          40          25
5460          38          28
5470          39          26
5480          35          29
5490          39          28
5500          34          27
5510          37          26
5520          38          24
5530          37          28
5540          37          30
5550          36          28
5560          38          29
5570          36          30
5580          38          26
5590          37          30
5600          36          26
5610          38          33
5620          33          30
5630          36          28
5640          30          31
5650          40          27
5660          36          34
5670          36          30
5680          37          29
5690          40          30
5700          37          31
5710          39          31
5720          39          23
5730          38          30
5740          38          30
5750          32          33
5760          34          31
5770          39          28
5780          41          29
5790          35          32
5800          34          25
5810          38          28
5820          36          32
5830          36          27
5840          38          25
5850          42          24
5860          39          24
5870          37          31
5880          38          36
5890          32          33
5900          35          35
5910          35          34
5920          42          24
5930          37          29
5940          33          30
5950          29          30
5960          33          35
5970          33          36
5980          37          30
5990          38          29
6000          35          26
6010          36          24
6020          34          26
6030          37          30
6040          37          25
6050          35          25
6060          33          30
6070          32          29
6080          35          26
6090          35          28
6100          33          32
6110          34          28
6120          36          25
6130          38          25
6140          35          26
6150          37          24
6160          37          29
6170          37          24
6180          35          28
6190          30          33
6200          33          22
6210          35          28
6220          35          30
6230          36          26
6240          38          25
6250          35          28
6260          38          27
6270          37          33
6280          34          35
6290          39          31
6300          33          31
6310          37          28
6320          33          30
6330          36          29
6340          37          28
6350          39          29
6360          33          31
6370          34          31
6380          36          26
6390          33          32
6400          34          25
6410          36          30
6420          40          26
6430          37          26
6440          34          34
6450          37          31
6460          36          37
6470          38          33
6480          35          35
6490          37          29
6500          38          29
6510          36          29
6520          37          31
6530          38          31
6540          33          31
6550          39          30
6560          37          27
6570          39          27
6580          37          32
6590          37          29
6600          35          30
6610          35          31
6620          39          31
6630          34          34
6640          38          26
6650          34          32
6660          36          29
6670          37          27
6680          34          28
6690          36          30
6700          36          27
6710          35          35
6720          38          29
6730          38          29
6740          36          30
6750          36          35
6760          39          32
6770          37          31
6780          37          35
6790          35          30
6800          40          31
6810          38          31
6820          32          31
6830          37          31
6840          40          31
6850          37          28
6860          39          25
6870          34          26
6880          36          34
6890          41          27
6900          37          30
6910          37          26
6920          35          30
6930          37          32
6940          36          26
6950          37          26
6960          35          35
6970          37          30
6980          34          34
6990          38          27
7000          35          36
7010          32          30
7020          35          34
7030          38          25
7040          40          26
7050          36          25
7060          37          29
7070          35          33
7080          38          26
7090          35          29
7100          36          29
7110          39          27
7120          37          30
7130          33          33
7140          39          29
7150          37          28
7160          36          35
7170          39          27
7180          38          28
7190          35          31
7200          36          29
7210          35          28
7220          36          30
7230          35          32
7240          34          32
7250          36          31
7260          35          28
7270          34          32
7280          36          33
7290          38          30
7300          38          26
7310          34          28
7320          38          25
7330          39          26
7340          37          34
7350          36          28
7360          38          29
7370          37          30
7380          36          32
7390          36          33
7400          39          29
7410          36          33
7420          39          27
7430          38          32
7440          36          32
7450          39          32
7460          38          26
7470          31          37
7480          35          32
7490          34          35
7500          36          30
7510          36          31
7520          36          31
7530          34          30
7540          30          36
7550          39          30
7560          38          34
7570          35          33
7580          38          24
7590          34          28
7600          35          30
7610          37          27
7620          32          35
7630          37          29
7640          34          31
7650          39          33
7660          37          28
7670          38          28
7680          38          27
7690          33          29
7700          36          28
7710          36          31
7720          37          29
7730          37          27
7740          36          27
7750          35          30
7760          33          31
7770          34          28
7780          36          29
7790          36          33
7800          39          26
7810          39          30
7820          37          29
7830          39          32
7840          31          35
7850          34          34
7860          35          33
7870          35          30
7880          39          27
7890          41          31
7900          37          29
7910          36          32
7920          35          28
7930          37          27
7940          35          29
7950          36          23
7960          33          32
7970          35          31
7980          34          25
7990          36          25
8000          37          25
8010          34          32
8020          35          26
8030          36          27
8040          30          24
8050          31          31
8060          31          32
8070          34          30
8080          36          26
8090          32          29
8100          32          31
8110          30          30
8120          32          26
8130          36          25
8140          32          25
8150          34          22
8160          30          26
8170          32          28
8180          30          30
8190          35          30
8200          40          29
8210          40          29
8220          36          27
8230          35          33
8240          34          33
8250          38          29
8260          34          26
8270          36          32
8280          37          31
8290          37          29
8300          40          28
8310          35          27
8320          37          27
8330          36          27
8340          37          31
8350          35          28
8360          38          27
8370          34          26
8380          35          29
8390          36          28
8400          35          30
8410          35          33
8420          36          28
8430          36          31
8440          37          30
8450          37          30
8460          39          28
8470          35          34
8480          35          30
8490          36          34
8500          39          33
8510          37          33
8520          40          30
8530          35          30
8540          39          25
8550          36          24
8560          36          32
8570          39          27
8580          33          28
8590          39          27
8600          36          26
8610          36          29
8620          36          25
8630          32          27
8640          32          26
8650          32          27
8660          34          30
8670          37          26
8680          35          33
8690          36          26
8700          33          28
8710          37          26
8720          38          27
8730          37          26
8740          36          21
8750          37          24
8760          36          31
8770          34          29
8780          38          27
8790          35          27
8800          35          28
8810          36          23
8820          34          27
8830          37          26
8840          36          27
8850          33          31
8860          36          26
8870          37          30
8880          37          28
8890          39          29
8900          33          35
8910          34          27
8920          40          28
8930          40          26
8940          37          24
8950          38          26
8960          35          27
8970          37          24
8980          39          24
8990          35          28
9000          36          24
9010          40          25
9020          34          35
9030          32          31
9040          35          25
9050          32          24
9060          35          29
9070          37          26
9080          35          26
9090          39          27
9100          32          30
9110          35          27
9120          37          30
9130          38          23
9140          36          25
9150          37          27
9160          34          25
9170          35          26
9180          35          28
9190          37          24
9200          32          23
9210          38          27
9220          37          27
9230          39          27
9240          33          27
9250          36          25
9260          38          28
9270          36          28
9280          36          30
9290          39          27
9300          37          27
9310          37          27
9320          38          26
9330          39          27
9340          36          27
9350          39          25
9360          36          28
9370          37          28
9380          36          26
9390          35          27
9400          34          30
9410          39          24
9420          37          26
9430          32          22
9440          37          24
9450          34          27
9460          36          25
9470          35          27
9480          39          26
9490          38          28
9500          37          31
9510          36          33
9520          37          30
9530          35          24
9540          35          28
9550          35          29
9560          35          26
9570          37          29
9580          34          29
9590          38          22
9600          35          30
9610          36          26
9620          38          23
9630          37          28
9640          37          26
9650          37          26
9660          32          37
9670          36          25
9680          36          25
9690          36          26
9700          37          27
9710          37          26
9720          35          25
9730          34          24
9740          34          31
9750          38          29
9760          33          29
9770          38          23
9780          33          34
9790          33          30
9800          35          33
9810          41          30
9820          37          23
9830          35          27
9840          37          27
9850          39          26
9860          36          32
9870          37          25
9880          32          29
9890          37          26
9900          35          25
9910          37          23
9920          36          27
9930          32          26
9940          34          26
9950          34          27
9960          37          24
9970          35          24
9980          33          25
9990          35          22
10000          36          23
