Time   C(t)   
ps   
0           1           1  6.64215e-10   0.0445623
10    0.555604    0.891187    0.727992    0.023092
20     0.53816    0.886915    0.647919  0.00162172
30     0.52317    0.883245    0.427187  0.000893921
40    0.520281    0.882538    0.426325  0.000679195
50    0.509586    0.879919     1.12889  0.000961825
60    0.501045    0.877827    0.507378  0.000435942
70    0.500867    0.877784   -0.477111  0.000191261
80     0.49722    0.876891    0.385955  0.000712398
90    0.486619    0.874295   -0.255125  0.000669008
100     0.48384    0.873614   -0.817816  0.000241894
110    0.481781    0.873111   -0.457288  0.000420593
120    0.475428    0.871555   -0.336805  0.000656423
130    0.468653    0.869896   -0.657551  0.000515637
140    0.465115     0.86903   0.0646409  0.000260916
150    0.463435    0.868618   -0.196617  0.000290044
160    0.459314    0.867609   -0.176188  0.00033924
170     0.45665    0.866957   -0.237085  0.000340065
180    0.452513    0.865944   -0.838716  0.000210296
190    0.452444    0.865927     0.62547  0.000218999
200    0.448133    0.864871    -0.27724  0.000447978
210    0.443484    0.863733    0.284491  0.000179064
220    0.444551    0.863995    0.826086  6.0831e-05
230    0.442268    0.863435    0.785716  0.000364105
240    0.437269    0.862211    0.465244  0.000319704
250    0.435874     0.86187  -0.0770556  0.000271164
260    0.431846    0.860884   -0.698822  0.000111173
270     0.43365    0.861325    0.805283  0.00028061
280    0.426234    0.859509  0.00340989  0.000387827
290    0.425894    0.859426    0.183811  0.000335284
300    0.419528    0.857867   0.0431331  -7.31379e-05
310    0.427356    0.859784     2.22994  -0.000345446
320    0.426437    0.859559    0.624686  0.000212111
330    0.423114    0.858745    0.824792  0.000444423
340    0.417549    0.857383    0.243689  0.000283542
350    0.417443    0.857357    0.242808  0.000300986
360    0.411529    0.855909     1.06597  0.00020152
370    0.413413     0.85637     1.02574  0.000152458
380     0.40848    0.855162      0.7247  -1.00777e-05
390    0.413614    0.856419     1.08564  -0.000105391
400    0.410588    0.855678     1.02498  0.000290421
410    0.407806    0.854997    0.784089  9.47535e-05
420    0.408693    0.855214     1.46669   0.0001537
430    0.404732    0.854244     1.36613  0.000429939
440    0.400094    0.853109     1.00566  0.000129174
450    0.402149    0.853612    0.181832  1.23292e-05
460    0.399847    0.853048     1.18534  0.000171676
470    0.398715    0.852771     1.04484  0.000264592
480    0.394555    0.851753     1.18516  0.000319655
490    0.392322    0.851206    0.924002  0.000206718
500    0.390421     0.85074    0.321862  0.000270422
510    0.386914    0.849881   -0.500539  0.000207618
520    0.386269    0.849724    0.482637  0.000229259
530    0.382328    0.848759      1.0448  0.000288814
540    0.380492    0.848309    0.162244  6.08936e-05
550     0.38111    0.848461    0.301628  0.000124694
560    0.377999    0.847699    0.382251  0.000120594
570    0.378699     0.84787    0.823459  0.000116736
580    0.375664    0.847127    0.602257  0.000325157
590    0.372195    0.846278    0.381585  0.000215225
600    0.371359    0.846073    0.582141  0.000360757
610     0.36498    0.844511    0.482519  0.000143598
620    0.368487     0.84537      1.1038  -0.00031268
630    0.371234    0.846042    0.781914  0.00027243
640    0.363039    0.844036  -0.0999748  0.000332385
650    0.364586    0.844414   -0.682488  0.000179368
660    0.359451    0.843157   -0.120366  0.000265177
670    0.359283    0.843116   0.0201555  -2.1714e-05
680    0.359886    0.843264   -0.121051  0.000137427
690    0.356534    0.842443     0.42074  0.000227822
700    0.355329    0.842148    0.441561  0.000129308
710    0.353948     0.84181    0.882221  0.00015981
720    0.352133    0.841365    0.480932  0.000276653
730    0.348415    0.840455   -0.100856  0.000195044
740    0.348232     0.84041    0.500852  -4.66034e-05
750    0.349347    0.840683     1.12258  8.75607e-05
760    0.346481    0.839981     0.48054  0.000243743
770    0.344472    0.839489   -0.181832  0.000344096
780    0.339599    0.838296     1.44405  0.00015337
790    0.341405    0.838738    0.018725  -5.02318e-05
800    0.340604    0.838542    0.139051  4.97207e-05
810     0.34041    0.838495     1.08168  0.000302604
820    0.334552     0.83706    0.641569  0.000420761
830    0.331995    0.836434   -0.141599  0.000238472
840    0.329782    0.835892    0.340038  9.02757e-05
850     0.33019    0.835992    0.340196  9.49249e-05
860    0.327884    0.835428    0.320314  1.1757e-05
870    0.329954    0.835935    0.299394  0.000143681
880     0.32501    0.834724   -0.282179  0.000424694
890    0.321461    0.833855     1.32302  -2.72393e-05
900    0.325555    0.834857    0.419485  -9.72971e-05
910    0.323406    0.834331    0.499265  0.00023711
920    0.320813    0.833696    0.178637  0.000228783
930    0.318831    0.833211    0.158913  1.72943e-05
940    0.320467    0.833611    0.579632  0.000260735
950    0.313616    0.831934    0.279004  0.000159006
960    0.317287    0.832833    0.639825  -0.000278784
970    0.319192    0.833299      1.1414  2.22012e-05
980    0.316842    0.832724    0.318609  0.000390626
990    0.311379    0.831386  -0.00248877  0.00050253
1000    0.306792    0.830263     1.52318  0.000218865
1010    0.307002    0.830315     1.16156  5.91278e-05
1020    0.305609    0.829974      1.1815  0.000282179
1030    0.301358    0.828933    0.980863  0.000202312
1040    0.301563    0.828983    0.659765  -1.15737e-05
1050     0.30159    0.828989     1.52212  0.000158446
1060    0.298394    0.828207   -0.564572  0.000301957
1070    0.295551    0.827511    0.539262  0.00017259
1080    0.294942    0.827362   0.0776042  0.000191151
1090    0.291728    0.826575  -0.0828957  0.000195837
1100    0.291026    0.826403    0.318001  0.000106353
1110    0.289601    0.826054    0.739231  3.90574e-05
1120    0.290245    0.826211    0.318296  0.000147554
1130     0.28665    0.825331    0.177148  0.000260575
1140    0.285033    0.824935    0.398349  3.51623e-05
1150    0.285946    0.825159    0.197303  -5.52207e-05
1160    0.286137    0.825206    0.477816  0.000198404
1170    0.281978    0.824187    0.317453  0.000289397
1180    0.280349    0.823789    0.598298  -0.000136769
1190    0.284714    0.824857    0.396978  0.000145155
1200    0.277446    0.823078    0.458072  0.000577432
1210    0.273165    0.822029    0.979962  0.000168647
1220    0.274073    0.822252    0.939396  0.000109918
1230    0.270967    0.821491     1.12015  0.000137414
1240    0.271325    0.821579    0.838736  -8.15719e-05
1250    0.272598    0.821891    0.558047  -3.90708e-06
1260    0.271403    0.821598    0.216949  0.000371833
1270    0.265161     0.82007   -0.485459  0.000120057
1280    0.269002     0.82101    0.999196  -0.000163959
1290    0.268441    0.820873    0.778406  0.000102167
1300    0.266959     0.82051    0.457112  7.01308e-05
1310    0.267038    0.820529    0.396743  0.000125717
1320    0.264445    0.819894    0.698077  0.000245813
1330    0.262122    0.819325     1.44033  0.000177117
1340    0.260902    0.819027     0.13615  0.000103565
1350     0.26005    0.818818     1.54048  8.52242e-05
1360    0.259198    0.818609    0.256594  -3.05012e-05
1370     0.26066    0.818968    0.717821  4.85882e-05
1380    0.258226    0.818371    0.717821  0.000285454
1390    0.254951     0.81757    0.457327  7.20054e-05
1400    0.256786    0.818019     1.13915  -0.000155744
1410    0.258066    0.818332   0.0348629  0.000254282
1420      0.2517    0.816774    0.938788  0.000240432
1430    0.253258    0.817155    0.195892  -0.000207362
1440    0.255847    0.817789    0.115642  0.000180684
1450    0.249644     0.81627   -0.827633  -2.09227e-05
1460    0.256266    0.817891   -0.186476  -0.000273575
1470    0.255115     0.81761   -0.306411  0.000152823
1480    0.253209    0.817143   -0.547043  0.000374109
1490    0.247633    0.815778   -0.265648  0.000162888
1500    0.249952    0.816345  -0.0257606  -0.000119022
1510    0.250014    0.816361   -0.868984  -6.27793e-05
1520    0.251207    0.816653   -0.146381  0.000149694
1530     0.24702    0.815628  -0.00550646  0.000182764
1540    0.247552    0.815758    0.255262  0.000235661
1550    0.242307    0.814473  -0.0258979  0.000193293
1560    0.243686    0.814811    0.014296  -0.000138229
1570    0.245071     0.81515   0.0743514  0.000241576
1580    0.238855    0.813628   0.0549203  0.000584356
1590    0.233384    0.812289    0.395959  1.89506e-05
1600    0.238476    0.813535   -0.407404  -0.000175985
1610    0.236904    0.813151    0.576674  0.000138291
1620     0.23571    0.812858   -0.467068  0.000176959
1630    0.233365    0.812284   -0.828516  -1.89267e-05
1640    0.236088    0.812951   -0.808654  -7.14451e-05
1650    0.234793    0.812634   -0.327409  0.000211269
1660    0.231863    0.811916  -0.0460141  0.000341453
1670    0.227964    0.810962   -0.628214  8.72806e-05
1680    0.230117    0.811489    0.776073  6.85491e-05
1690    0.226593    0.810626    -0.12648  9.24416e-05
1700    0.228268    0.811036    0.234616  -8.37371e-06
1710    0.226761    0.810667   -0.648291  0.00027663
1720    0.222736    0.809681   -0.828633  0.000223928
1730    0.222282     0.80957   0.0138258  -0.000129077
1740    0.225317    0.810314   -0.488594  5.51239e-05
1750     0.22118      0.8093     0.35457  0.000322028
1760    0.218877    0.808737  -0.00683963  0.000133312
1770    0.218514    0.808648  -0.0463666  0.000352774
1780    0.211821    0.807009   -0.468087  0.000275242
1790    0.213009      0.8073   -0.187064  -6.03214e-05
1800    0.213028    0.807304    0.114173  -6.78003e-06
1810    0.213144    0.807333   -0.569178  -0.000168256
1820    0.216393    0.808128  -0.00725127  -5.57929e-05
1830     0.21426    0.807606   -0.649918  0.000311537
1840    0.210162    0.806603     -1.0505  0.000474206
1850    0.204776    0.805284   -0.127303  0.000273793
1860    0.204686    0.805262   -0.508692  -0.000168256
1870    0.208141    0.806108   -0.448813  0.000102544
1880    0.202635     0.80476   -0.489496  0.000176362
1890    0.204614    0.805244    0.153367  -4.50946e-05
1900    0.203537    0.804981   0.0123949  3.86439e-05
1910    0.203841    0.805055    0.313456  0.000187474
1920    0.199788    0.804062  -0.0877364  0.000118159
1930    0.201478    0.804476    0.674786  2.45497e-05
1940    0.199297    0.803942    0.133172  -6.01262e-05
1950     0.20268    0.804771     1.01512  4.69834e-06
1960    0.199203    0.803919      1.4567    0.000393
1970     0.19482    0.802846    0.313612  0.000104515
1980    0.197113    0.803407    0.493739  0.000150242
1990    0.191816     0.80211    0.192521  0.000200194
2000    0.193109    0.802427    0.273026  5.72056e-06
2010    0.191701    0.802082    0.433487  0.000171031
2020    0.189688    0.801589    0.653807  1.57498e-05
2030    0.191386    0.802005   -0.128831  9.64701e-05
2040    0.187759    0.801117   -0.168672  0.000141735
2050    0.188551    0.801311   0.0920569  -0.000245702
2060    0.192673     0.80232     1.03488  -3.93011e-05
2070    0.189337    0.801504    0.753919  0.00047047
2080    0.183263    0.800016    0.292829  0.000259018
2090    0.184157    0.800235     1.11521  -6.91451e-05
2100    0.184646    0.800355    0.452408  8.80227e-05
2110    0.182397    0.799804    0.813955  -4.40605e-05
2120    0.185527    0.800571     1.53623  0.000179771
2130    0.178801    0.798924    0.774095  0.000362986
2140    0.178268    0.798793    0.573205  5.84468e-05
2150    0.177632    0.798638    0.652984  0.000109591
2160    0.176076    0.798256    0.913988  0.000288764
2170    0.171857    0.797223    0.493053  0.000263704
2180    0.170802    0.796965     1.23538  -2.7483e-05
2190    0.172407    0.797358     1.29536  -0.000104284
2200    0.172887    0.797476     1.19442  0.000152215
2210    0.169362    0.796613     1.05445  0.000208873
2220     0.16871    0.796453    0.432605  0.000147785
2230    0.166407    0.795889     1.19499  1.91942e-05
2240    0.168326    0.796359    0.110586  8.66108e-05
2250    0.164675    0.795465   -0.370482  0.000448415
2260    0.159358    0.794163      1.0342  0.000294156
2270    0.158791    0.794024    0.773487  -2.62052e-05
2280    0.159882    0.794291     1.05396  0.000197017
2290    0.154851    0.793059    0.793329  0.000316674
2300    0.153548     0.79274    0.572401  -1.00292e-05
2310    0.155052    0.793108    0.531757  -9.849e-05
2320    0.155518    0.793223    0.591969  0.000120252
2330    0.152647     0.79252  -0.0304443  0.000298002
2340    0.149558    0.791763    0.592419  0.000304064
2350    0.146565    0.791031     0.81274  8.4883e-05
2360    0.147861    0.791348    0.351082  -4.58494e-05
2370    0.147482    0.791255     1.25418  0.000148319
2380    0.144894    0.790621      1.2542  -4.59954e-05
2390    0.148402     0.79148    0.772135  -6.15992e-05
2400    0.146126    0.790923     1.21346  0.000291211
2410    0.142578    0.790054    0.952634  0.000371091
2420    0.138704    0.789106     1.09347  9.71027e-05
2430    0.140636    0.789579     1.09343  -8.22291e-05
2440    0.140349    0.789508    0.912832  -8.34987e-06
2450    0.140803     0.78962     1.05255  0.000145508
2460    0.137439    0.788796    0.672023  0.000315736
2470    0.134488    0.788073    0.210149  0.000151654
2480    0.134406    0.788053     -0.1513  0.000114958
2490    0.132189     0.78751    0.250186  6.17817e-05
2500     0.13317    0.787751    0.229952  0.00012618
2510    0.129665    0.786892  -0.0311499  9.42424e-05
2520    0.131285    0.787289    0.349906  0.000121567
2530    0.127234    0.786297    0.330201  0.000201947
2540    0.127246      0.7863    0.470604  -1.20498e-05
2550    0.127475    0.786356    0.349749  4.17113e-05
2560    0.126412    0.786096    0.269185  9.02258e-05
2570    0.125671    0.785914    0.931518  0.000203687
2580    0.122338    0.785098    0.650672  0.000231085
2590    0.121049    0.784783   0.0887255  0.000183203
2600    0.118674    0.784201    0.188995  0.000124074
2610    0.118567    0.784175   -0.172043  2.69596e-05
2620    0.118135    0.784069     0.49027  2.69718e-05
2630    0.118028    0.784043    0.108823  8.14747e-05
2640    0.116506     0.78367     0.40953  0.000310259
2650    0.111823    0.782524   -0.191885  0.000201849
2660    0.112469    0.782682    0.369689  0.000109968
2670    0.109623    0.781985   -0.131614  0.000241162
2680    0.107645    0.781501     1.41314  -0.000152239
2690    0.112668    0.782731   -0.152573  -5.89941e-05
2700    0.108825     0.78179    0.530228  5.55255e-05
2710    0.111558    0.782459   -0.112124  -0.000119742
2720     0.11122    0.782376   -0.212805  0.000287073
2730    0.105816    0.781053    0.469899  0.000474888
2740    0.101722     0.78005    0.530032  8.9873e-05
2750    0.104019    0.780613    0.509935  -1.99366e-05
2760    0.102121    0.780148     1.05163  0.000145788
2770    0.101103    0.779899    0.469821  0.000146202
2780    0.099197    0.779432    0.108685  8.54667e-05
2790   0.0993937     0.77948    0.911166  8.59417e-05
2800   0.0974781    0.779011       0.731  9.15404e-05
2810   0.0975628    0.779032     1.29189  0.000114204
2820   0.0951941    0.778452    0.790331  0.00030976
2830   0.0913676    0.777515    0.870933  3.66356e-05
2840   0.0944613    0.778273    0.228424  -1.8768e-05
2850    0.091743    0.777607    0.669907  0.000143342
2860   0.0915945    0.777571    0.670083  8.21561e-05
2870   0.0900999    0.777205    0.408884  4.3001e-05
2880   0.0907345     0.77736    0.469174  5.45278e-05
2890   0.0890093    0.776938    0.167781  0.000415176
2900    0.082431    0.775327    0.910774  0.000116942
2910   0.0866705    0.776365    0.870464  -7.42693e-05
2920   0.0839164     0.77569    0.468958  0.000287243
2930   0.0809256    0.774958    0.769862  0.00015785
2940   0.0807594    0.774917    0.790291  -0.000125353
2950   0.0834327    0.775572     1.35163  2.22005e-05
2960   0.0803154    0.774809     1.57266  0.000238193
2970   0.0786688    0.774406     1.45243  0.000216211
2980   0.0759911     0.77375    0.850308  0.000353796
2990   0.0715929    0.772673     1.51252  0.000177397
3000   0.0724432    0.772881     1.27185  0.000149695
3010    0.068599     0.77194     1.05067  -9.09809e-05
3020   0.0742628    0.773327    0.789566  3.56864e-05
3030   0.0678853    0.771765     1.05094  0.000138437
3040   0.0714941    0.772649    0.910422  -0.000223161
3050   0.0723485    0.772858     1.11086  0.000185345
3060   0.0677872    0.771741    0.990456  0.000300973
3070    0.066329    0.771384    0.829741  9.96467e-05
3080   0.0657942    0.771253     1.13086  0.000296943
3090   0.0603902     0.76993     1.63254  0.000309127
3100   0.0596117    0.769739    0.308301  -0.000171798
3110   0.0638261    0.770771     1.11059  -0.000177738
3120   0.0631665     0.77061     1.17078  0.000398112
3130   0.0558639    0.768822    0.890011  0.000317087
3140   0.0568247    0.769057     0.68922  -2.02773e-05
3150   0.0562695    0.768921     1.37159  0.000137475
3160   0.0540752    0.768384    0.749216  2.06424e-05
3170   0.0558566     0.76882      1.3511  -4.34395e-05
3180    0.054944    0.768596    0.748726  0.000314604
3190   0.0495645    0.767279     0.64885  0.000226898
3200    0.050406    0.767485    0.347612  -7.24681e-05
3210   0.0510139    0.767634    0.387415  -9.63239e-05
3220   0.0523325    0.767957    0.969203  0.000116175
3230   0.0486904    0.767065    0.126528  0.000139836
3240   0.0495358    0.767272    0.648321  0.000140591
3250   0.0458786    0.766377    0.728532  6.34613e-05
3260   0.0482666    0.766961    0.467527  0.000135515
3270   0.0431683    0.765713   -0.214588  0.000439068
3280   0.0394852    0.764811    0.126841  0.000213838
3290   0.0388915    0.764666  -0.0137966  -0.000113802
3300   0.0417612    0.765369   -0.576018  -0.000149744
3310   0.0418864    0.765399   -0.776927  0.00014905
3320   0.0387802    0.764639    -0.13424  0.000305269
3330    0.035781    0.763904   -0.435556  0.00021015
3340   0.0345773    0.763609    0.306811  -0.000300644
3350   0.0417939    0.765377   -0.135396  1.2427e-05
3360   0.0343287    0.763549     1.10949  0.000464056
3370   0.0325128    0.763104    0.125765  4.28064e-05
3380   0.0334726    0.763339     0.74802  4.31228e-05
3390   0.0316503    0.762893     0.42698  0.000564469
3400   0.0221832    0.760575    0.286577  0.000328772
3410   0.0250749    0.761283    0.186075  -0.000186246
3420   0.0259081    0.761487    0.105256  8.10245e-05
3430   0.0234544    0.760886    -0.13526  0.000172565
3440   0.0224568    0.760642  0.00530036  2.65943e-05
3450   0.0229225    0.760756    0.125079  5.73269e-05
3460   0.0213103    0.760361   -0.275976  0.000143135
3470   0.0200598    0.760055    0.446549  0.000149792
3480   0.0183144    0.759627   0.0253981  0.000144023
3490   0.0171793    0.759349   0.0252407  -0.000224877
3500    0.022812    0.760729    0.225346  -0.000200376
3510   0.0211869    0.760331    0.546269  0.000187499
3520    0.019062     0.75981    0.225837  0.000348879
3530   0.0142093    0.758622   -0.356579  0.00013296
3540   0.0164028    0.759159    0.566757  -0.000219778
3550   0.0186048    0.759699     0.28499  0.000289044
3560   0.0106219    0.757744   -0.356677  0.000195861
3570   0.0146876    0.758739    0.245169  0.000184894
3580  0.00692402    0.756838    0.606755  0.000215773
3590   0.0103722    0.757683   -0.216371   0.0001361
3600  0.00420203    0.756172    0.506505  0.000173307
3610  0.00690601    0.756834   0.0445147  -0.000176715
3620  0.00773633    0.757037  -0.0962222  0.000168135
3630  0.00354331    0.756011   -0.296876  0.000199731
3640  0.00374171    0.756059  -0.0358141  -2.62292e-05
3650   0.0040679    0.756139   -0.237018  0.000200973
3660  -0.000277749    0.755075    -0.41738  1.78918e-05
3670  0.00371006    0.756051   -0.277093  -3.84005e-05
3680  0.000490261    0.755263   -0.919427   0.0001449
3690  0.00081207    0.755342   -0.458062  0.000158288
3700  -0.0026755    0.754488   -0.557939  0.000260284
3710  -0.0043936    0.754067   -0.799042  0.000184773
3720  -0.00637095    0.753583   -0.959581  0.000242806
3730  -0.00924971    0.752878   -0.678187  6.45445e-05
3740  -0.00766184    0.753267   -0.959581  -1.1794e-05
3750  -0.00901383    0.752936    0.304753  0.000205987
3760  -0.0117816    0.752258   -0.618014  9.74314e-05
3770  -0.0109625    0.752459   -0.799022  -4.99389e-05
3780  -0.0107828    0.752503  0.00404634  2.06304e-05
3790  -0.0113751    0.752358  -0.0967127  8.51627e-05
3800  -0.0124861    0.752086   -0.397909  8.54549e-05
3810  -0.0130842    0.751939    -0.31762  3.39945e-05
3820   -0.013166    0.751919   -0.177334  0.000157351
3830  -0.0162312    0.751169    -0.21741  0.000281072
3840  -0.0187874    0.750543    -0.43824  -1.72711e-05
3850  -0.0158858    0.751253  -0.0569688  -2.34419e-05
3860  -0.0183186    0.750658    0.183938  0.000126131
3870  -0.0184084    0.750636   -0.658913  -0.000219838
3880  -0.0139218    0.751734   -0.338481  0.000140141
3890  -0.0212112    0.749949   -0.117181  0.000513593
3900  -0.0241937    0.749219  -0.0168533  2.93085e-05
3910  -0.0217974    0.749806   -0.117768  -0.000259772
3920  -0.0189982    0.750491   -0.157865  2.29916e-05
3930  -0.0222572    0.749693    0.925717  0.000260308
3940  -0.0242044    0.749216   -0.278171  0.000208215
3950  -0.0264215    0.748673    -0.35848  3.51751e-06
3960  -0.0242747    0.749199    0.263463  -0.000168573
3970    -0.02305    0.749499    0.162802  -3.09153e-06
3980  -0.0242129    0.749214   0.0828656  0.000336318
3990  -0.0297764    0.747852  -0.0979269  0.00017702
4000  -0.0277533    0.748347    0.343477  4.47901e-06
4010   -0.029866     0.74783   -0.238231  9.78938e-05
4020  -0.0297112    0.747868      0.2028  5.82154e-05
4030  -0.0310303    0.747545    0.162802  0.000111952
4040  -0.0319502     0.74732   -0.680656  0.000388168
4050  -0.0387936    0.745644     -1.0613  0.000180099
4060  -0.0355522    0.746438    0.282796  0.000141005
4070  -0.0416137    0.744954  0.00244003  0.000161014
4080  -0.0387725    0.745649   -0.118239  -0.000230415
4090  -0.0370054    0.746082    0.363164  -6.32927e-07
4100  -0.0387598    0.745652    0.162529  0.000393097
4110  -0.0448674    0.744157   -0.218625  0.00028515
4120  -0.0444628    0.744256   -0.760396  -0.000101862
4130  -0.0428301    0.744656  -0.0786728  -0.000184103
4140  -0.0407807    0.745158   -0.118867  2.04721e-05
4150  -0.0432396    0.744555   -0.078535  0.000198429
4160  -0.0447493    0.744186   -0.540213  -0.00012338
4170   -0.040772     0.74516    -0.19937  -1.34736e-05
4180  -0.0444798    0.744252    -1.22235  0.000199366
4190  -0.0447593    0.744183   -0.780905  -1.34248e-05
4200  -0.0442113    0.744318   -0.279739  -4.80402e-05
4210  -0.0437985    0.744419   -0.219566  4.87095e-05
4220  -0.0451855    0.744079   -0.219448  0.000485684
4230  -0.0535122     0.74204   -0.339578  -4.8174e-05
4240   -0.044222    0.744315   -0.561075  -0.000241698
4250  -0.0486782    0.743224   -0.962148   0.0001606
4260  -0.0474341    0.743528   -0.280288  0.000203614
4270  -0.0527505    0.742227   -0.600876  4.97807e-05
4280  -0.0484297    0.743285   -0.701556  -6.12948e-05
4290  -0.0515246    0.742527   -0.781728  0.000183544
4300  -0.0521005    0.742386   -0.300306  -6.88165e-05
4310  -0.0501483    0.742864    -1.12302  0.00024827
4320  -0.0570659     0.74117   -0.380242  0.000177786
4330   -0.053704    0.741993   -0.821941  -4.52772e-06
4340  -0.0569754    0.741192    -1.14294  -5.47588e-05
4350  -0.0526088    0.742261    -1.48449  4.50704e-05
4360  -0.0578768    0.740971    -1.14323  0.000215043
4370  -0.0569097    0.741208    -1.22347  -0.00019664
4380   -0.053944    0.741934    -1.46508  0.000152275
4390  -0.0599552    0.740463   -0.962834  0.000237803
4400  -0.0587001     0.74077   -0.983029  0.000124805
4410  -0.0624513    0.739851   -0.541134  0.000117611
4420  -0.0610523    0.740194    -1.14335  -8.26554e-05
4430  -0.0607982    0.740256    -1.06355  0.000284006
4440  -0.0667324    0.738803    -1.12314  0.000349341
4450   -0.067785    0.738545   -0.842508  -0.000111222
4460   -0.064508    0.739348    -1.08349  9.86487e-05
4470   -0.069758    0.738062    -1.50468  0.000417172
4480  -0.0728514    0.737305   -0.922504  2.6704e-05
4490   -0.070292    0.737931   -0.642206  0.000107326
4500  -0.0749979    0.736779    -1.28401  0.000150778
4510  -0.0733076    0.737193   -0.963304  -3.05865e-05
4520  -0.0743862    0.736929    -1.50508  0.000173867
4530  -0.0767849    0.736342    -1.18419  0.000152324
4540  -0.0774327    0.736183    -1.40494  0.000277908
4550  -0.0823431    0.734981    -1.48527  0.000175632
4560  -0.0809453    0.735323    -1.90656  -7.37824e-05
4570  -0.0808674    0.735342    -1.30426  -1.51291e-05
4580  -0.0806428    0.735397     -1.7463  0.000118037
4590  -0.0832282    0.734764   -0.642481  0.000385003
4600  -0.0883428    0.733512    -1.06385  0.000148563
4610  -0.0861995    0.734036    -1.34483  5.30671e-05
4620  -0.0894042    0.733252    -1.62546  0.000105026
4630     -0.0883    0.733522    -1.64579  -0.00019277
4640  -0.0855488    0.734196    -1.18443  -2.88825e-05
4650  -0.0877223    0.733664    -1.36483  0.000255269
4660  -0.0906542    0.732946   -0.823195  0.000136087
4670  -0.0904441    0.732997   -0.743102  -1.35709e-05
4680  -0.0903827    0.733012   -0.903406  -0.000186951
4690  -0.0867051    0.733913    -1.28517  -8.91428e-05
4700  -0.0885999    0.733449    -1.42553  0.000204941
4710  -0.0908039    0.732909   -0.582543  0.000190676
4720  -0.0924134    0.732515    -1.24519  0.000145849
4730  -0.0937208    0.732195     -1.7869  3.98125e-05
4740  -0.0932096     0.73232    -1.26509  -0.000157947
4750  -0.0905619    0.732968    -2.18856  0.000162365
4760   -0.096457    0.731525    -1.58613  3.2096e-05
4770  -0.0912038    0.732811    -1.04493  2.56937e-05
4780  -0.0969708    0.731399    -1.52631  0.000132229
4790  -0.0938484    0.732164    -1.70691  -0.000174305
4800  -0.0934847    0.732253    -1.44606  0.000241175
4810  -0.0986719    0.730982   -0.944305  0.000226143
4820  -0.0980076    0.731145    -1.24544  -0.000236902
4830  -0.0939338    0.732143    -1.04502  0.000305439
4840   -0.104116    0.729649    -1.78757  0.000344083
4850   -0.100816    0.730458     -1.7074  0.000120898
4860   -0.106534    0.729057    -1.68706  0.000159554
4870   -0.104007    0.729676    -1.86788  0.00011407
4880   -0.108816    0.728499    -1.96822  -1.9316e-05
4890    -0.10362    0.729771    -1.44671  -0.000159688
4900   -0.105622    0.729281    -1.96869  0.00035001
4910    -0.11062    0.728057    -1.60707  0.000359042
4920   -0.112803    0.727522     -2.1087  0.000116029
4930   -0.112941    0.727489    -1.68797  6.12948e-05
4940   -0.114029    0.727222    -1.96834  0.000132801
4950   -0.115597    0.726838    -1.22593  -8.90817e-05
4960   -0.112247    0.727659    -1.56744  0.000141747
4970   -0.118432    0.726144    -2.14939  0.000404514
4980   -0.120337    0.725678    -1.72749  0.000118962
4990   -0.120811    0.725561    -1.84809  -0.000166589
