Time   Number   
ps   
0          51          32
10          47          37
20          50          30
30          51          30
40          47          31
50          46          34
60          46          32
70          48          32
80          50          32
90          46          34
100          48          29
110          47          29
120          48          37
130          49          34
140          49          34
150          47          35
160          50          37
170          54          35
180          46          36
190          49          35
200          49          36
210          49          35
220          48          33
230          50          31
240          51          35
250          46          38
260          45          33
270          46          33
280          46          38
290          45          34
300          46          28
310          47          40
320          42          34
330          52          35
340          49          40
350          48          35
360          49          39
370          49          41
380          48          33
390          50          37
400          52          34
410          52          34
420          46          32
430          44          35
440          47          32
450          51          31
460          50          38
470          52          35
480          51          37
490          51          33
500          47          37
510          47          30
520          49          41
530          46          37
540          48          30
550          49          33
560          49          34
570          52          31
580          49          41
590          47          31
600          50          35
610          49          31
620          49          33
630          48          36
640          47          34
650          51          38
660          53          35
670          53          35
680          48          36
690          52          40
700          53          36
710          49          37
720          48          39
730          52          34
740          45          39
750          47          30
760          48          38
770          49          36
780          48          36
790          50          31
800          52          32
810          50          44
820          53          40
830          44          40
840          50          39
850          53          38
860          53          44
870          55          34
880          52          30
890          51          40
900          50          34
910          50          30
920          48          36
930          51          36
940          48          33
950          51          36
960          46          37
970          51          37
980          46          32
990          49          35
1000          51          28
1010          46          36
1020          50          32
1030          46          33
1040          49          36
1050          49          38
1060          48          31
1070          49          35
1080          50          29
1090          47          37
1100          48          33
1110          46          33
1120          49          31
1130          48          30
1140          47          25
1150          50          36
1160          50          31
1170          51          37
1180          54          28
1190          48          35
1200          51          35
1210          49          35
1220          49          33
1230          48          38
1240          51          41
1250          46          34
1260          50          33
1270          47          40
1280          47          38
1290          49          35
1300          46          39
1310          49          33
1320          52          36
1330          51          40
1340          50          30
1350          48          32
1360          49          34
1370          49          28
1380          54          30
1390          50          36
1400          51          38
1410          50          31
1420          47          34
1430          50          32
1440          52          35
1450          49          35
1460          52          40
1470          52          33
1480          47          35
1490          52          35
1500          47          40
1510          50          36
1520          51          37
1530          48          42
1540          53          37
1550          50          35
1560          50          38
1570          49          33
1580          51          29
1590          50          29
1600          51          34
1610          51          37
1620          47          33
1630          51          37
1640          54          36
1650          52          32
1660          46          35
1670          54          30
1680          51          33
1690          54          34
1700          54          32
1710          50          32
1720          49          38
1730          48          37
1740          50          30
1750          48          40
1760          48          35
1770          52          40
1780          51          35
1790          50          36
1800          50          36
1810          54          37
1820          52          31
1830          52          33
1840          51          32
1850          52          32
1860          50          31
1870          51          28
1880          50          33
1890          49          32
1900          51          41
1910          52          30
1920          55          34
1930          51          41
1940          48          37
1950          50          27
1960          46          31
1970          52          38
1980          51          28
1990          49          33
2000          50          37
2010          51          34
2020          50          35
2030          56          36
2040          51          29
2050          52          30
2060          54          36
2070          54          33
2080          51          35
2090          46          32
2100          48          32
2110          48          38
2120          52          32
2130          50          30
2140          48          40
2150          53          31
2160          51          32
2170          50          36
2180          46          42
2190          50          32
2200          48          29
2210          51          39
2220          47          42
2230          52          30
2240          53          32
2250          49          30
2260          47          31
2270          52          36
2280          52          32
2290          54          35
2300          52          35
2310          51          40
2320          50          39
2330          53          38
2340          52          36
2350          48          37
2360          53          32
2370          50          36
2380          47          34
2390          47          41
2400          48          37
2410          49          37
2420          53          36
2430          51          32
2440          49          39
2450          47          35
2460          52          29
2470          49          35
2480          50          34
2490          49          37
2500          48          33
2510          47          37
2520          51          37
2530          48          31
2540          51          36
2550          48          28
2560          48          39
2570          51          40
2580          51          34
2590          50          29
2600          49          36
2610          48          32
2620          51          36
2630          50          31
2640          51          36
2650          50          37
2660          45          38
2670          48          44
2680          48          44
2690          51          28
2700          51          39
2710          49          31
2720          49          27
2730          49          31
2740          51          35
2750          49          37
2760          51          35
2770          50          36
2780          50          35
2790          52          28
2800          48          37
2810          49          32
2820          50          31
2830          49          32
2840          45          28
2850          49          28
2860          47          36
2870          47          37
2880          47          31
2890          49          34
2900          47          36
2910          50          31
2920          45          31
2930          45          27
2940          47          31
2950          46          34
2960          50          30
2970          49          37
2980          47          39
2990          49          30
3000          44          47
3010          50          32
3020          51          40
3030          51          37
3040          51          30
3050          47          35
3060          50          28
3070          44          40
3080          44          36
3090          46          36
3100          48          28
3110          45          26
3120          48          35
3130          48          31
3140          45          33
3150          50          32
3160          46          28
3170          47          28
3180          47          23
3190          50          25
3200          46          32
3210          47          34
3220          49          30
3230          49          41
3240          51          35
3250          49          38
3260          47          28
3270          48          31
3280          52          30
3290          47          33
3300          48          38
3310          45          36
3320          46          36
3330          47          36
3340          48          32
3350          49          38
3360          50          31
3370          53          29
3380          50          30
3390          48          34
3400          55          32
3410          51          33
3420          49          38
3430          54          33
3440          50          35
3450          48          43
3460          48          34
3470          53          41
3480          48          36
3490          51          35
3500          49          35
3510          48          30
3520          50          38
3530          48          39
3540          49          25
3550          50          39
3560          51          30
3570          47          33
3580          48          35
3590          52          32
3600          49          33
3610          49          39
3620          52          39
3630          49          34
3640          49          44
3650          47          35
3660          50          36
3670          48          35
3680          51          42
3690          47          34
3700          50          32
3710          50          34
3720          48          35
3730          50          30
3740          47          32
3750          49          39
3760          48          34
3770          46          38
3780          51          33
3790          51          35
3800          46          40
3810          47          37
3820          48          30
3830          46          33
3840          51          31
3850          46          39
3860          50          36
3870          48          32
3880          50          35
3890          50          35
3900          53          33
3910          47          38
3920          50          39
3930          51          34
3940          51          33
3950          54          37
3960          50          36
3970          51          37
3980          52          40
3990          49          36
4000          52          33
4010          51          38
4020          48          34
4030          54          33
4040          50          33
4050          49          37
4060          49          31
4070          49          35
4080          50          30
4090          52          35
4100          50          37
4110          50          34
4120          48          33
4130          48          34
4140          50          33
4150          51          30
4160          50          30
4170          52          34
4180          50          44
4190          48          35
4200          46          35
4210          50          31
4220          46          34
4230          55          37
4240          50          32
4250          53          31
4260          47          35
4270          46          34
4280          49          35
4290          48          34
4300          48          36
4310          50          35
4320          48          32
4330          49          34
4340          52          35
4350          50          34
4360          49          34
4370          48          31
4380          46          32
4390          48          34
4400          50          29
4410          48          32
4420          50          37
4430          50          40
4440          48          36
4450          51          33
4460          51          32
4470          48          34
4480          52          31
4490          49          36
4500          52          34
4510          47          38
4520          54          35
4530          52          34
4540          50          40
4550          51          38
4560          50          34
4570          49          29
4580          47          28
4590          52          30
4600          49          34
4610          50          30
4620          50          34
4630          51          37
4640          52          30
4650          51          33
4660          48          37
4670          51          30
4680          52          34
4690          51          27
4700          45          34
4710          49          32
4720          52          31
4730          50          29
4740          52          35
4750          54          29
4760          49          26
4770          51          32
4780          46          30
4790          51          35
4800          56          34
4810          51          34
4820          49          34
4830          52          33
4840          47          34
4850          48          29
4860          53          31
4870          54          34
4880          48          32
4890          50          32
4900          48          30
4910          53          35
4920          51          28
4930          53          32
4940          53          37
4950          49          35
4960          50          31
4970          50          33
4980          49          38
4990          53          31
5000          51          37
5010          47          37
5020          50          36
5030          55          33
5040          51          34
5050          54          34
5060          56          38
5070          54          39
5080          56          38
5090          50          36
5100          54          39
5110          55          40
5120          51          37
5130          56          31
5140          52          31
5150          52          33
5160          53          33
5170          55          35
5180          53          36
5190          50          35
5200          53          35
5210          53          41
5220          57          37
5230          54          30
5240          54          37
5250          50          41
5260          51          33
5270          55          35
5280          53          31
5290          54          40
5300          50          38
5310          49          38
5320          54          35
5330          50          37
5340          54          31
5350          53          39
5360          56          35
5370          52          38
5380          55          35
5390          56          34
5400          56          41
5410          56          42
5420          56          36
5430          54          38
5440          54          35
5450          58          30
5460          52          32
5470          55          35
5480          50          39
5490          56          36
5500          59          33
5510          56          37
5520          59          32
5530          58          32
5540          54          35
5550          53          34
5560          51          41
5570          49          35
5580          51          35
5590          55          31
5600          50          33
5610          54          32
5620          53          36
5630          51          33
5640          54          39
5650          49          37
5660          54          39
5670          53          39
5680          53          35
5690          49          35
5700          51          41
5710          48          40
5720          54          40
5730          52          37
5740          55          43
5750          55          34
5760          50          40
5770          57          36
5780          54          38
5790          53          42
5800          54          39
5810          56          41
5820          53          39
5830          53          37
5840          53          36
5850          57          35
5860          52          45
5870          53          45
5880          54          47
5890          55          40
5900          52          40
5910          54          47
5920          56          36
5930          58          34
5940          53          38
5950          55          29
5960          52          32
5970          53          38
5980          52          41
5990          49          37
6000          52          45
6010          49          41
6020          56          41
6030          56          36
6040          58          33
6050          53          39
6060          53          42
6070          54          43
6080          55          37
6090          52          38
6100          53          42
6110          56          32
6120          51          33
6130          56          36
6140          53          46
6150          48          42
6160          52          41
6170          50          43
6180          56          36
6190          56          38
6200          52          41
6210          54          39
6220          57          35
6230          52          34
6240          58          40
6250          56          44
6260          51          36
6270          57          43
6280          50          46
6290          59          37
6300          49          51
6310          56          37
6320          57          38
6330          53          44
6340          52          43
6350          49          51
6360          56          41
6370          53          41
6380          55          41
6390          59          45
6400          51          39
6410          56          39
6420          58          41
6430          55          37
6440          54          37
6450          54          38
6460          55          44
6470          55          38
6480          56          49
6490          54          48
6500          57          43
6510          54          38
6520          52          40
6530          50          37
6540          57          37
6550          48          43
6560          50          44
6570          55          36
6580          52          45
6590          55          37
6600          56          40
6610          52          37
6620          52          36
6630          54          45
6640          59          44
6650          53          42
6660          55          45
6670          55          39
6680          51          42
6690          51          45
6700          56          42
6710          54          43
6720          48          41
6730          53          41
6740          54          44
6750          56          40
6760          51          39
6770          54          35
6780          54          36
6790          58          39
6800          54          36
6810          51          44
6820          56          40
6830          54          39
6840          54          47
6850          57          38
6860          50          39
6870          51          42
6880          56          39
6890          56          38
6900          53          43
6910          56          41
6920          50          40
6930          55          41
6940          53          47
6950          51          43
6960          54          41
6970          53          35
6980          56          38
6990          54          43
7000          53          34
7010          52          39
7020          55          37
7030          52          43
7040          45          41
7050          53          42
7060          56          37
7070          55          38
7080          53          37
7090          56          41
7100          52          37
7110          47          39
7120          54          36
7130          55          37
7140          55          40
7150          55          42
7160          54          40
7170          50          33
7180          49          39
7190          53          36
7200          54          34
7210          53          36
7220          52          33
7230          52          29
7240          52          43
7250          54          29
7260          50          34
7270          49          39
7280          49          34
7290          51          37
7300          50          40
7310          53          36
7320          50          36
7330          51          39
7340          53          37
7350          52          40
7360          50          38
7370          53          39
7380          53          40
7390          48          41
7400          52          32
7410          54          34
7420          52          44
7430          50          41
7440          52          35
7450          49          42
7460          55          40
7470          56          42
7480          49          40
7490          54          43
7500          55          46
7510          50          39
7520          50          36
7530          53          35
7540          58          38
7550          47          47
7560          52          39
7570          49          43
7580          52          38
7590          52          34
7600          52          37
7610          52          38
7620          51          38
7630          47          35
7640          51          34
7650          54          35
7660          50          35
7670          51          41
7680          51          36
7690          54          34
7700          56          37
7710          56          32
7720          53          38
7730          54          34
7740          48          42
7750          51          42
7760          54          36
7770          52          37
7780          54          32
7790          51          38
7800          48          38
7810          51          34
7820          51          35
7830          52          34
7840          52          33
7850          51          37
7860          56          34
7870          51          40
7880          49          31
7890          57          32
7900          53          38
7910          53          33
7920          51          43
7930          50          34
7940          49          31
7950          52          27
7960          52          33
7970          50          33
7980          56          32
7990          49          30
8000          53          36
8010          52          36
8020          50          35
8030          49          40
8040          56          41
8050          51          33
8060          53          32
8070          47          41
8080          53          35
8090          49          39
8100          50          40
8110          52          34
8120          48          36
8130          53          37
8140          55          37
8150          51          36
8160          49          35
8170          53          35
8180          53          35
8190          51          31
8200          49          41
8210          55          35
8220          52          36
8230          49          40
8240          53          34
8250          50          36
8260          54          37
8270          53          43
8280          57          35
8290          55          29
8300          51          38
8310          51          34
8320          54          33
8330          48          34
8340          52          28
8350          55          33
8360          46          35
8370          51          32
8380          50          34
8390          53          37
8400          50          38
8410          54          37
8420          53          28
8430          51          34
8440          53          39
8450          51          37
8460          52          34
8470          51          28
8480          51          33
8490          53          36
8500          48          31
8510          51          33
8520          51          26
8530          51          31
8540          55          36
8550          48          39
8560          58          32
8570          53          36
8580          49          40
8590          51          34
8600          47          40
8610          50          34
8620          54          37
8630          49          37
8640          51          35
8650          49          46
8660          50          29
8670          53          30
8680          53          34
8690          55          30
8700          55          30
8710          53          34
8720          52          39
8730          51          31
8740          55          31
8750          50          33
8760          51          39
8770          55          35
8780          54          35
8790          51          34
8800          51          39
8810          53          42
8820          51          38
8830          50          39
8840          53          28
8850          54          30
8860          48          39
8870          54          35
8880          46          33
8890          54          38
8900          52          39
8910          50          36
8920          51          32
8930          53          42
8940          49          42
8950          52          35
8960          56          31
8970          50          34
8980          51          34
8990          52          35
9000          51          34
9010          52          32
9020          47          35
9030          53          38
9040          56          43
9050          51          42
9060          50          34
9070          52          32
9080          50          28
9090          52          37
9100          53          37
9110          51          36
9120          54          38
9130          54          37
9140          55          37
9150          51          37
9160          55          34
9170          53          35
9180          53          41
9190          56          36
9200          53          29
9210          50          36
9220          51          37
9230          53          32
9240          55          38
9250          53          32
9260          52          35
9270          50          40
9280          49          40
9290          50          34
9300          54          37
9310          51          45
9320          53          34
9330          51          35
9340          50          46
9350          52          36
9360          52          43
9370          53          31
9380          53          41
9390          50          34
9400          50          40
9410          54          33
9420          52          41
9430          55          34
9440          52          32
9450          51          37
9460          48          35
9470          53          29
9480          48          34
9490          50          40
9500          53          34
9510          50          34
9520          53          31
9530          49          33
9540          53          28
9550          48          41
9560          48          33
9570          52          35
9580          54          32
9590          51          35
9600          55          32
9610          51          27
9620          54          32
9630          56          30
9640          50          30
9650          51          33
9660          56          33
9670          53          31
9680          51          32
9690          51          31
9700          51          35
9710          52          29
9720          54          29
9730          49          34
9740          55          33
9750          47          32
9760          51          39
9770          52          34
9780          52          34
9790          51          30
9800          54          31
9810          54          32
9820          54          36
9830          54          32
9840          52          29
9850          50          26
9860          52          30
9870          51          40
9880          52          29
9890          52          32
9900          48          28
9910          50          41
9920          51          35
9930          53          27
9940          54          30
9950          54          33
9960          56          30
9970          56          32
9980          53          36
9990          53          35
10000          52          34
