Time   C(t)   
ps   
0           1           1  2.13783e-10   0.0189572
10    0.814519    0.819531   -0.108965   0.0113667
20    0.772666    0.778809    0.996012  0.00377616
30    0.738996    0.746049   -0.409625   0.0031647
40    0.709372    0.717226     1.84314   0.0028151
50    0.682694    0.691268   -0.199817  0.00265551
60    0.656262    0.665551   -0.711532  0.00254481
70    0.631798    0.641747    0.860606  0.00231335
80    0.609995    0.620534    0.221129  0.00212211
90    0.589356    0.600452   -0.460493  0.00201859
100    0.569624    0.581253  -0.0787428  0.00209613
110    0.547433    0.559662   -0.887172  0.00190364
120    0.531551    0.544209   -0.250727  0.00172827
130    0.512868    0.526031    -1.22931  0.00169917
140    0.497567    0.511144    0.768341  0.00155542
150    0.481759    0.495763     1.23629   0.0015108
160    0.467351    0.481745    0.767635  0.00140321
170    0.453695    0.468457    0.426159  0.00132351
180    0.440881     0.45599     1.36148  0.00125225
190     0.42865    0.444089   -0.128448  0.00123957
200     0.41609    0.431868    0.848932  0.00117015
210    0.405247    0.421319   -0.343075  0.00107659
220    0.394558    0.410918     1.27287  0.00104601
230    0.384327    0.400964     1.31468  0.000976005
240    0.375038    0.391925    0.675868  0.000936449
250    0.365598    0.382741   -0.303132  0.00099536
260     0.35513    0.372556   -0.728896  0.000896427
270    0.347669    0.365297   -0.433013  0.000775418
280    0.339622    0.357467     0.20447  0.000798981
290     0.33169    0.349749    0.373546  0.000763245
300    0.324357    0.342614    0.713485  0.000855158
310    0.314587    0.333108   -0.605122  0.000755332
320    0.309251    0.327916    0.840084  0.000618046
330    0.302226    0.321081    0.201355  0.000720885
340    0.294833    0.313888      1.5619  0.000748932
350    0.287247    0.306507   -0.012234  0.00068627
360    0.281107    0.300533     1.39087  0.000610164
370    0.275044    0.294634    0.114033  0.000562592
380    0.269856    0.289586    0.453764  0.000546049
390    0.264123    0.284008     0.19828  0.000504932
400    0.259757     0.27976     0.28286  0.000483787
410    0.254447    0.274593    0.920592  0.000591706
420    0.247923    0.268245    0.623713  0.000501418
430    0.244419    0.264836     1.17554  0.000404376
440    0.239835    0.260377     1.47258  0.000481161
450    0.234796    0.255473     1.26003  0.000464248
460     0.23055    0.251342    0.238555  0.000407033
470    0.226655    0.247552    0.408753  0.000383224
480    0.222886    0.243885    0.152729  0.000361594
490    0.219423    0.240516    0.492045  0.000357877
500    0.215728    0.236921    0.236478  0.000432844
510    0.210766    0.232093    0.576832  0.000485502
520    0.206018    0.227473     1.04491  0.00041215
530    0.202523    0.224073     1.12911  0.000365686
540    0.198705    0.220357     1.21394  0.000300924
550    0.196505    0.218217     1.17113  0.000294866
560    0.192807    0.214619     0.23519  0.000370117
570    0.189102    0.211014    0.319936  0.000296122
580    0.186885    0.208857    0.617439  0.000280953
590    0.183483    0.205547    0.234609  0.000256511
600    0.181755    0.203865   -0.872279  0.00022986
610    0.178886    0.201074   -0.616837  0.000216624
620    0.177422     0.19965    -1.25565  0.000260462
630    0.173677    0.196006    -1.04277  0.000324752
640    0.170927     0.19333   -0.872819  0.000222748
650    0.169222    0.191671   -0.703286  0.000234722
660    0.166233    0.188763    0.232698  0.000294641
670    0.163329    0.185938   -0.788821  0.000366279
680    0.158907    0.181635   -0.533628  0.000348655
690    0.156356    0.179153   -0.364137  0.000285234
700    0.153202    0.176085   -0.449422  0.000345551
710    0.149445    0.172429    0.317028  0.000284147
720    0.147519    0.170555   0.0606303  0.000231899
730    0.144807    0.167916    0.358176   0.0002485
740    0.142549    0.165719    0.443004  0.000239824
750     0.14001    0.163249    0.357428  0.000291155
760    0.136726    0.160054     0.35776  0.000275563
770    0.134499    0.157887    0.484567  0.000241481
780    0.131897    0.155355    0.824838  0.000204896
790    0.130401    0.153899     1.12201  0.000191486
800    0.128067    0.151628    0.100532  0.000245275
810    0.125496    0.149127    0.270065  0.000334163
820    0.121384    0.145126    0.142967  0.000306884
830    0.119358    0.143155    0.866068  0.000270379
840    0.115976    0.139864   -0.112849  0.000308219
850    0.113194    0.137157   -0.708188  0.000308925
860    0.109798    0.133853  -0.0278536  0.000283853
870    0.107517    0.131633   -0.794097  0.000202617
880    0.105745     0.12991   0.0139168  0.000214802
890    0.103221    0.127453    -0.32706  0.00022226
900      0.1013    0.125585   -0.242065  0.000232179
910    0.098577    0.122935    0.353523    0.000235
920   0.0966002    0.121012    0.353232  0.00021673
930   0.0942424    0.118718    0.778165  0.000214833
940   0.0923035    0.116831    0.522889  0.000172869
950    0.090785    0.115354   0.0118398  0.000159106
960   0.0891214    0.113735    0.394712  0.000142902
970    0.087927    0.112573    0.479707  0.000166915
980   0.0857831    0.110487      1.2878  0.000190926
990   0.0841085    0.108858     1.37263  0.000170024
1000   0.0823826    0.107178    0.776961  0.000151401
1010   0.0810805    0.105911     1.15958  0.000106597
1020   0.0802507    0.105104    0.733736  0.000156839
1030   0.0779437    0.102859     0.94612  0.000228583
1040    0.075679    0.100656     1.15875  0.00025772
1050   0.0727893   0.0978443     1.11653  0.000191401
1060    0.071851   0.0969314     1.71207  9.87083e-05
1070   0.0708151   0.0959235     1.49898  0.000127639
1080   0.0692982   0.0944476     1.49902  0.000171027
1090   0.0673946   0.0925954    0.818108  0.00017139
1100   0.0658704   0.0911124     1.11599  0.000118967
1110   0.0650152   0.0902803    0.818108  0.000119272
1120    0.063485   0.0887915    0.264706  0.00015801
1130    0.061855   0.0872055    0.732739    0.000168
1140    0.060125   0.0855223  -0.0332544  0.000149079
1150   0.0588734   0.0843045   -0.841808  0.000110805
1160   0.0579089    0.083366   -0.842057  0.000115906
1170   0.0565553    0.082049    -1.01225  0.000125827
1180   0.0553924   0.0809175    -1.26741  0.000140661
1190   0.0537421   0.0793119       -1.48  0.000172489
1200   0.0519426   0.0775609    -1.73585  0.000185021
1210   0.0500417   0.0757114   -0.885198  0.000146536
1220   0.0490119   0.0747094    -1.60867  8.84954e-05
1230   0.0482718   0.0739893    -1.01338  0.000110645
1240    0.046799   0.0725563    -1.22572  0.000176728
1250   0.0447372   0.0705503   -0.928506  0.000140463
1260   0.0439897    0.069823   -0.843262  8.46188e-05
1270   0.0430449   0.0689037    -1.22626  0.000106833
1280    0.041853    0.067744    -1.05635  0.00014138
1290   0.0402173   0.0661525    -1.39625  0.000124503
1300    0.039363   0.0653213   -0.758599  3.39378e-05
1310   0.0395385    0.065492    -1.09916  3.6535e-05
1320   0.0386323   0.0646103    -0.63146  9.56524e-05
1330   0.0376255   0.0636307     -0.8012  8.35398e-05
1340   0.0369615   0.0629847    -0.75889  4.6733e-05
1350   0.0366908   0.0627213    -1.22684  1.96895e-05
1360   0.0365677   0.0626015    -1.35502  4.44779e-05
1370   0.0358012   0.0618558    -0.92942  7.17817e-05
1380   0.0351321   0.0612047   -0.801865  6.6999e-05
1390   0.0344613    0.060552    -0.92942  9.69443e-05
1400   0.0331932   0.0593182   -0.929503  5.73704e-05
1410   0.0333138   0.0594356    -1.44022  2.84612e-06
1420   0.0331362   0.0592628    -1.22759  2.77471e-05
1430   0.0327589   0.0588956    -1.90846  7.01955e-05
1440   0.0317323   0.0578968    -2.07845  9.27937e-05
1450    0.030903   0.0570899    -1.61029  6.05267e-05
1460   0.0305218    0.056719    -1.78074  5.81904e-05
1470   0.0297392   0.0559576    -2.16341  4.32706e-05
1480   0.0296564    0.055877    -2.37637  4.09055e-05
1490   0.0289211   0.0551616    -2.67392  8.36565e-05
1500   0.0279833   0.0542491    -2.16361  5.61831e-05
1510   0.0277975   0.0540683    -2.20605  2.36361e-05
1520   0.0275105   0.0537891    -2.29104  2.62045e-05
1530   0.0272734   0.0535583     -2.5464  2.12224e-05
1540   0.0270861   0.0533761    -2.24869  2.88546e-05
1550   0.0266963   0.0529968    -2.03618  6.43226e-05
1560   0.0257996   0.0521244    -1.86578  4.92513e-05
1570   0.0257112   0.0520384    -1.44055  1.89904e-05
1580   0.0254198   0.0517549    -1.56823  3.67928e-05
1590   0.0249754   0.0513225    -1.56827  3.68726e-05
1600   0.0246824   0.0510374   -0.972977  1.91577e-05
1610   0.0245922   0.0509497    -1.44105  3.45009e-05
1620   0.0239924    0.050366    -1.44089  6.26087e-05
1630   0.0233401   0.0497313    -1.35577  4.74328e-05
1640   0.0230437    0.049443    -1.31337  5.26811e-05
1650   0.0222864   0.0487062    -1.52613  5.53391e-05
1660   0.0219369   0.0483661    -1.39837  6.80368e-06
1670   0.0221504   0.0485738    -1.27106  -1.36715e-05
1680   0.0222104   0.0486321     -1.5265  9.40459e-06
1690   0.0219623   0.0483908    -1.39891  2.99845e-05
1700   0.0216107   0.0480487    -1.22883  6.09556e-05
1710   0.0207432   0.0472046    -1.05864  4.81806e-05
1720   0.0206471   0.0471111    -1.01637  4.05985e-05
1730   0.0199312   0.0464146    -0.76105  6.90865e-05
1740   0.0192653   0.0457667   -0.718407  6.14959e-05
1750   0.0187013   0.0452179   -0.718573  5.90616e-05
1760   0.0180841   0.0446174   -0.846419  3.32617e-05
1770    0.018036   0.0445706   -0.421153  1.00043e-05
1780    0.017884   0.0444227   -0.463755  3.86248e-05
1790   0.0172635    0.043819    -0.50619  4.91038e-05
1800   0.0169019   0.0434672   -0.336075  4.92623e-06
1810    0.017165   0.0437231   -0.208728  1.01972e-05
1820    0.016698   0.0432687   -0.123525  -5.49946e-06
1830    0.017275   0.0438302   -0.293806  -2.83401e-06
1840   0.0167547   0.0433239  -0.0809655  7.56867e-06
1850   0.0171236   0.0436829  -0.0812562  -1.59604e-05
1860   0.0170739   0.0436345   -0.293889  -3.17804e-05
1870   0.0177592   0.0443013   0.0465061  -1.07808e-05
1880   0.0172895   0.0438442  0.00382202  2.33413e-05
1890   0.0172924   0.0438471   0.0889829  2.07915e-05
1900   0.0168737   0.0434396     0.51429  2.34628e-06
1910   0.0172455   0.0438014  -0.0813809  1.82532e-05
1920   0.0165086   0.0430845    0.173936  6.05539e-05
1930   0.0160344   0.0426231    0.216413  3.95326e-05
1940   0.0157179   0.0423152    0.301408  3.1686e-05
1950   0.0154007   0.0420065    0.173729  3.44192e-05
1960   0.0150296   0.0416454    0.216372  1.85498e-05
1970   0.0150297   0.0416455    0.301533  3.19287e-05
1980    0.014391   0.0410241  0.00390489  5.31715e-06
1990   0.0149234    0.041542   -0.209351  1.60773e-05
2000   0.0140694   0.0407112   -0.124107  4.27488e-05
2010   0.0140684   0.0407102  0.00319875  8.13263e-06
2020   0.0139068   0.0405529    0.258557  4.83213e-05
2030    0.013102   0.0397699    0.216122  8.32663e-05
2040   0.0122415   0.0389326    0.216289  5.93055e-05
2050   0.0119158   0.0386158    0.216164  2.45354e-05
2060   0.0117507   0.0384552   -0.294471  4.07591e-05
2070   0.0111007   0.0378226  -0.0392366  6.77872e-05
2080    0.010395   0.0371361   -0.124232  4.90626e-05
2090   0.0101194   0.0368679  -0.0389874  2.48932e-05
2100  0.00989714   0.0366517   0.0886506  1.14317e-05
2110  0.00989077   0.0366455  -0.0391118  2.23105e-05
2120  0.00945093   0.0362175   -0.251911  4.94656e-05
2130  0.00890146   0.0356829   -0.634451  2.51411e-05
2140  0.00894811   0.0357283   -0.549497  1.7085e-05
2150  0.00855976   0.0353504   -0.336947  2.79914e-05
2160  0.00838828   0.0351836   -0.294512  1.98963e-05
2170  0.00816184   0.0349632   -0.464419  1.17551e-05
2180  0.00815318   0.0349548   -0.762296  -4.60045e-06
2190  0.00825384   0.0350528  -0.0815472  2.82376e-05
2200  0.00758843   0.0344053    -0.25162  5.29241e-05
2210  0.00719536   0.0340229    -0.12365  2.01505e-05
2220  0.00718542   0.0340132  -0.0384887  9.94909e-07
2230  0.00717547   0.0340035     -0.3362  -2.1011e-05
2240  0.00760564   0.0344221    0.088983  -1.75491e-06
2250  0.00721056   0.0340377   0.0467138  9.21907e-06
2260  0.00742126   0.0342427   -0.378718  -3.4904e-05
2270  0.00790864   0.0347169   -0.591683  2.03289e-05
2280  0.00701468   0.0338471    -0.20852  3.96733e-05
2290  0.00711518   0.0339449   -0.633994  -1.83801e-05
2300  0.00738228   0.0342047   -0.251495  3.98801e-05
2310  0.00631758   0.0331688   -0.846834  6.21349e-05
2320  0.00613958   0.0329956   -0.251495  -1.6609e-06
2330  0.00635079   0.0332011   -0.166501  1.22943e-05
2340   0.0058937   0.0327564  0.00369711  9.49241e-06
2350  0.00616095   0.0330164    0.131003  1.79473e-05
2360  0.00553475   0.0324071   0.0459662  3.19251e-05
2370  0.00552244   0.0323952   0.0457999  3.20499e-05
2380  0.00489375   0.0317835    0.173272  7.69769e-05
2390  0.00398291   0.0308972    0.216081  4.62617e-05
2400  0.00396852   0.0308832   0.0457586  9.87981e-06
2410  0.00378531    0.030705   -0.294595  5.4956e-05
2420   0.0028694   0.0298138    0.173521  5.7872e-05
2430  0.00262787   0.0295788   -0.464627  4.39518e-05
2440  0.00199036   0.0289585   -0.592099  7.28439e-06
2450  0.00248218   0.0294371   -0.379632  -1.81042e-05
2460  0.00235245   0.0293108   -0.251994  1.58277e-05
2470  0.00216563   0.0291291   -0.294512  1.01889e-05
2480  0.00214867   0.0291126   -0.379632  7.38307e-06
2490  0.00201797   0.0289854   -0.294388  -6.83691e-06
2500  0.00228541   0.0292456   -0.932951  1.59739e-05
2510  0.00169849   0.0286745   -0.932536  -2.97038e-05
2520  0.00287948   0.0298236   -0.549954  -5.53867e-05
2530  0.00280622   0.0297523   -0.634908  7.33713e-06
2540  0.00273274   0.0296808   -0.805105  -1.55666e-05
2550  0.00311755   0.0300553    -0.80523  -5.28786e-05
2560  0.00379031   0.0307098   -0.890267  -6.73675e-05
2570   0.0044649   0.0313662   -0.464959  -4.74102e-05
2580  0.00473852   0.0316324   -0.422441  1.58165e-05
2590  0.00414857   0.0310584    -0.37984  4.7534e-05
2600  0.00378783   0.0307074    -0.37984  7.23489e-06
2610  0.00400387   0.0309176   -0.294845  1.30803e-05
2620  0.00352623   0.0304529   -0.209808  2.17585e-05
2630   0.0035687   0.0304942   -0.167248  2.18513e-05
2640   0.0030892   0.0300277   0.0455091  -1.29775e-05
2650  0.00382825   0.0307468    0.300453  -3.32881e-05
2660  0.00375496   0.0306755    0.257893  1.51389e-06
2670  0.00379798   0.0307173     0.30037  3.06888e-05
2680  0.00314119   0.0300783    0.385489  1.9044e-05
2690   0.0034171   0.0303467    0.768195  2.20848e-05
2700  0.00269949   0.0296485    0.470526  6.01458e-05
2710  0.00221418   0.0291763    0.129964  5.15299e-05
2720  0.00166889   0.0286458    0.257727  -1.18825e-06
2730  0.00223795   0.0291994    0.257519  -1.28768e-05
2740  0.00192643   0.0288963    0.384991  3.11946e-05
2750  0.00161405   0.0285924    0.214834  2.53837e-05
2760  0.00141876   0.0284024     0.55523  2.25096e-05
2770  0.00116386   0.0281544     0.47011  3.14386e-05
2780  0.000789984   0.0277906    0.512587  4.03999e-05
2790  0.000355863   0.0273682    0.470027  3.45777e-05
2800  9.84295e-05   0.0271177    0.512629  7.96466e-06
2810  0.00019657   0.0272132    0.427675  5.03739e-06
2820  -2.31831e-06   0.0270197     0.42755  3.77823e-05
2830  -0.000559076    0.026478    0.938102  3.1901e-05
2840  -0.000640337   0.0263989    0.937978  -3.80578e-06
2850  -0.000482961    0.026552    0.810173  -3.66891e-05
2860  9.34445e-05   0.0271129    0.810215  -8.33519e-07
2870  -0.00046629   0.0265683    0.554815  3.50642e-05
2880  -0.000607839   0.0264305    0.937811  5.16728e-06
2890  -0.000569636   0.0264677    0.512379  5.19409e-06
2900  -0.000711721   0.0263295    0.342389  -1.58807e-05
2910  -0.000252022   0.0267767    0.810173  -9.85281e-06
2920  -0.000514664   0.0265212    0.980537  1.42241e-05
2930  -0.000536504   0.0264999    0.640142  -1.89797e-05
2940  -0.000135071   0.0268905     0.81034  -1.59757e-05
2950  -0.000216989   0.0268108    0.512421   8.203e-06
2960  -0.000299131   0.0267309    0.937728  2.15348e-06
2970  -0.000260058   0.0267689     1.19305  8.25153e-06
2980  -0.000464161   0.0265703     1.15057  8.25689e-06
2990  -0.000425196   0.0266082     1.02301  1.13467e-05
3000  -0.000691095   0.0263495    0.810215  3.27371e-05
3010  -0.00107994   0.0259712    0.852941  2.23742e-06
3020  -0.000735844    0.026306    0.597582  8.42124e-06
3030  -0.00124836   0.0258073     1.06553  1.45185e-05
3040  -0.00102621   0.0260235    0.852567  1.15413e-05
3050  -0.00147919   0.0255827     1.02293  1.46024e-05
3060  -0.00131826   0.0257393     0.93777  -1.91963e-05
3070  -0.00109526   0.0259563    0.810049  -2.23327e-05
3080  -0.000871607   0.0261739     1.02276  1.15867e-05
3090   -0.001327   0.0257308       1.193  -8.04706e-07
3100  -0.000855513   0.0261896      1.0652  2.35841e-06
3110  -0.00137416   0.0256849    0.895085  2.40138e-05
3120  -0.00133579   0.0257223    0.937562  2.37162e-06
3130  -0.0014216   0.0256388    0.809841  1.79302e-05
3140  -0.00169439   0.0253733     0.72468  1.48525e-05
3150  -0.00171865   0.0253497    0.809675  5.55025e-06
3160  -0.0018054   0.0252653    0.682162  1.18139e-05
3170  -0.00195492   0.0251199    0.809717  -6.77304e-07
3180  -0.00179185   0.0252785      0.8098  -3.51394e-05
3190  -0.00125214   0.0258037     1.10743  -2.26569e-05
3200  -0.00133871   0.0257194    0.937521  -3.90571e-06
3210  -0.00117402   0.0258797    0.979997  -3.2237e-05
3220  -0.000693974   0.0263467     1.15024  -3.86151e-05
3230  -0.00040172   0.0266311     1.15011  -3.8743e-05
3240  8.08862e-05   0.0271007     1.02256  -2.93565e-05
3250  0.000185409   0.0272024    0.937562  -4.13237e-06
3260  0.000163534   0.0271811    0.894961  5.36207e-06
3270  7.81678e-05    0.027098    0.682369  2.19617e-06
3280  0.00011961   0.0271383     1.02276  -2.00583e-05
3290  0.000479333   0.0274883    0.895085  -1.37221e-05
3300  0.000394051   0.0274054    0.682411  2.15932e-06
3310  0.000436146   0.0274463    0.724888  -1.69998e-05
3320  0.000734048   0.0277362    0.597291  -4.22924e-06
3330  0.000520731   0.0275286    0.937604  1.49523e-05
3340  0.000435002   0.0274452     1.23544  3.42675e-05
3350  -0.000164619   0.0268618    0.937728  2.79019e-05
3360  -0.000123037   0.0269022     1.23544  -2.67029e-05
3370  0.000369438   0.0273814     1.02264  -1.70752e-05
3380  0.000218467   0.0272345      1.0226  3.44977e-05
3390  -0.000320516   0.0267101    0.767489  1.19316e-05
3400  -2.0166e-05   0.0270023    0.639519  -4.16568e-06
3410  -0.000237203   0.0267912    0.767281  4.76914e-05
3420  -0.000973994   0.0260743    0.937645  -4.19114e-06
3430  -0.00015338   0.0268727    0.852359  -1.71015e-05
3440  -0.000631964   0.0264071     1.15028  4.14126e-05
3450  -0.000981632   0.0260668    0.724929  -4.14979e-06
3460  -0.000548968   0.0264878    0.639768  -1.71799e-05
3470  -0.000638034   0.0264012    0.299248  -4.17611e-06
3480  -0.000465446   0.0265691    0.341725  -1.72848e-05
3490  -0.000292339   0.0267375    0.682203  -2.71906e-05
3500  7.83669e-05   0.0270982    0.511798  -7.52378e-06
3510  -0.000141863   0.0268839    0.724597  -1.0038e-06
3520  9.84429e-05   0.0271177    0.256481  -1.08696e-05
3530  7.55298e-05   0.0270954    0.469362  -2.08375e-05
3540  0.000515193   0.0275232   0.0865319  -2.74856e-05
3550  0.000625243   0.0276303    0.341766  -1.10226e-05
3560  0.000735645   0.0277377    0.341849  -3.42969e-05
3570  0.00131118   0.0282977    0.171693  -5.76435e-05
3580  0.00188851   0.0288594    0.256813  -4.45021e-05
3590  0.00220122   0.0291637    0.214336  -6.80111e-05
3600  0.00324874   0.0301829    0.469654  -7.4848e-05
3610  0.00369818   0.0306202    0.724846  -3.1631e-05
3620  0.00388136   0.0307984    0.724805  -8.29193e-06
3630  0.00386402   0.0307816    0.639768  8.44948e-06
3640  0.00371237    0.030634    0.937562  1.51892e-05
3650  0.00356024    0.030486     1.02268  8.5027e-06
3660  0.00354231   0.0304685    0.767489  -2.5185e-05
3670  0.00406394   0.0309761    0.682369  1.80133e-06
3680  0.00350629   0.0304335    0.682286  3.89362e-05
