Time   C(t)   
ps   
0           1           1  -1.76946e-10   0.0458736
10    0.544657    0.839035     1.13824   0.0242558
20    0.514884     0.82851   -0.563105  0.00263796
30    0.491898    0.820384    0.111233  0.00183819
40     0.47812    0.815513     1.71333  0.00136583
50    0.464582    0.810728    0.814633  0.00120356
60    0.454049    0.807004     1.29376  0.00120612
70    0.440459      0.8022    0.267288  0.000913569
80    0.435777    0.800545  -0.0867616  0.00086666
90    0.423126    0.796073    0.330644  0.000756101
100    0.420655    0.795199     0.45676  0.000368281
110     0.41576    0.793469  -0.0580134  0.00058423
120    0.408971    0.791069  0.00706563  0.000746988
130    0.400821    0.788188    0.680934  0.000456236
140    0.399846    0.787843    0.775482  0.000457492
150    0.391671    0.784953  -0.0263827  0.000404008
160    0.391766    0.784987   -0.252248  0.000364766
170    0.384375    0.782374   -0.220492  0.00053658
180    0.381034    0.781193    -0.63843  0.000564957
190    0.373076     0.77838    0.100486  0.000498068
200    0.371073    0.777672   -0.990882  0.000146295
210     0.37015    0.777346    -1.02439  0.000559072
220    0.359891    0.773719     -1.7934  0.000477995
230    0.360591    0.773966   -0.703791  0.000129905
240    0.357293    0.772801    -1.95588  0.00069821
250    0.346626     0.76903    -1.02305  0.000594565
260    0.345402    0.768597    -1.50493  0.000327519
270    0.340076    0.766714    -2.33987  0.000346251
280    0.338477    0.766149    -2.46768  9.61497e-05
290    0.338153    0.766035   0.0334012  8.26702e-05
300    0.336824    0.765565    -1.66785  7.82192e-05
310    0.336589    0.765482   -0.995332  0.000243272
320    0.331958    0.763845   -0.705797  0.000344379
330    0.329701    0.763047   -0.802413  0.000345206
340    0.325054    0.761404   -0.802319  0.000354968
350    0.322602    0.760537   -0.160489  0.000277661
360    0.319501    0.759441    -1.41139  0.000351849
370    0.315565    0.758049    0.577612  -1.60098e-05
380    0.319821    0.759554    0.479962  -0.000172447
390    0.319014    0.759269   -0.194188  0.000274768
400    0.314326    0.757612    0.480088  0.000307496
410    0.312864    0.757095   -0.194156   7.613e-06
420    0.314173    0.757558   -0.066818  0.000262469
430    0.307614    0.755239    0.768651  0.000313582
440    0.307902    0.755341    0.639683  0.000240347
450    0.302807     0.75354     1.98723  0.000426376
460    0.299374    0.752326     1.15286  0.000101866
470     0.30077     0.75282    0.382312  0.000125615
480    0.296862    0.751438    0.895738  0.00041448
490     0.29248    0.749889   0.0938746  0.00040137
500    0.288835      0.7486    0.318173  0.000252806
510    0.287424    0.748102   -0.741783  6.17951e-05
520    0.287599    0.748163     0.25231  0.000263262
530    0.282159     0.74624   -0.163842  0.000179167
540    0.284015    0.746897   -0.774228  3.92526e-05
550    0.281374    0.745963    -1.51205  -3.1963e-06
560    0.284079    0.746919   0.0590472  0.000114605
570    0.279082    0.745153   -0.774949   0.0004061
580    0.275957    0.744048   0.0591419  -1.68279e-05
590    0.279418    0.745272   -0.134529  -0.00012961
600    0.278549    0.744964     1.30882  0.000403267
610    0.271353    0.742421   -0.293655  9.18925e-05
620    0.276712    0.744315    0.217546  8.79899e-05
630    0.269593    0.741798   -0.647799  0.000352743
640    0.269657    0.741821      -1.578  2.20537e-05
650    0.269152    0.741643    -1.06643  0.000135916
660    0.266938     0.74086    0.185226  0.000482886
670    0.259495    0.738228    -1.16144  -4.41506e-05
680    0.267821    0.741172    -1.13107  -0.00020525
690      0.2636     0.73968    0.602005  0.000303474
700    0.261752    0.739026     1.56393  -5.34996e-05
710     0.26467    0.740058     1.72375  6.60449e-05
720    0.260431     0.73856    0.152279  0.000481746
730    0.255035    0.736652    0.345605  0.000209947
740    0.256232    0.737075    0.729531  0.000177127
750    0.251492      0.7354    0.313034  -7.22334e-05
760    0.257677    0.737586  -0.0741188  -0.000143725
770    0.254367    0.736416  -0.0416733  0.000235179
780    0.252973    0.735923    0.760191  0.000269441
790    0.248978    0.734511   -0.330299  0.000226529
800    0.248443    0.734322    0.150462  0.000265849
810    0.243661    0.732631   -0.522278  0.000266161
820    0.243119     0.73244    -1.64622  0.000150907
830    0.240643    0.731564  -0.0737116  0.000257621
840    0.237967    0.730618   -0.394313  0.000345341
850    0.233736    0.729123   -0.329986  0.000346015
860    0.231047    0.728172   -0.715291  1.68607e-05
870    0.233399    0.729003    0.470374  4.62502e-05
880    0.230122    0.727845    0.118173  0.000405999
890    0.225279    0.726133    0.599373  9.51894e-05
900    0.228218    0.727172   -0.364656  7.14324e-05
910     0.22385    0.725628   -0.684663  0.000320116
920    0.221816    0.724909   -0.268228  0.000296503
930     0.21792    0.723532   0.0210871  0.000380235
940    0.214211    0.722221   -0.940936  0.000165601
950    0.214608    0.722361   -0.236691  -6.91392e-05
960    0.215594    0.722709   -0.397728  8.29063e-05
970     0.21295    0.721775    -1.03915  0.000195884
980    0.211676    0.721324    -2.19447  1.4399e-05
990    0.212662    0.721673    -1.10323  9.66117e-06
1000    0.211483    0.721256   -0.622059  0.000137738
1010    0.209907    0.720699    -1.87402  0.000281075
1020    0.205861    0.719269   -0.750118  9.88066e-05
1030    0.207931    0.720001    -1.74578  0.000425861
1040    0.197344    0.716258    -1.61565  0.000401277
1050    0.199905    0.717164    -1.64919  -0.000405105
1060    0.205446    0.719122    -1.42602  7.55712e-05
1070    0.198394    0.716629     -1.8418  0.000373103
1080    0.197984    0.716484    -2.03497  -4.35017e-05
1090    0.199264    0.716937    -1.13658  0.000110887
1100    0.195766      0.7157   -0.366881  0.000195581
1110    0.195352    0.715554   -0.559768  1.6541e-05
1120    0.195436    0.715583   -0.752624  0.000256516
1130    0.190222     0.71374   -0.239229  0.000386802
1140    0.187699    0.712849   -0.752154  1.71736e-05
1150    0.189879    0.713619     -1.2348  0.000172978
1160     0.18424    0.711626   -0.848426  0.000373717
1170    0.182404    0.710977   -0.271362  -7.25195e-05
1180     0.18569    0.712138    -1.07413  -6.23099e-05
1190     0.18365    0.711417    -1.87691  4.30293e-05
1200     0.18483    0.711834    -1.07539  0.000376078
1210    0.176129    0.708758   -0.976985  8.86895e-05
1220    0.183056    0.711207     -1.2036  -0.00023367
1230    0.180802     0.71041    -1.87747  -7.79323e-05
1240    0.184615    0.711758    -2.00688  0.000129931
1250    0.178204    0.709492    -1.07489  0.000413612
1260    0.176342    0.708834    -1.23586  6.45444e-05
1270    0.176913    0.709036    -2.93746  7.50236e-05
1280    0.174842    0.708303    -1.68562  0.000232751
1290    0.172258     0.70739    -1.30072  -7.24271e-05
1300     0.17629    0.708816    -1.84769  0.00014203
1310    0.169417    0.706386   -0.883252  0.000473654
1320    0.166817    0.705467    -1.78126  -2.09168e-05
1330    0.169835    0.706534   -0.947297  -0.000163966
1340    0.170097    0.706626    -0.98062  7.63893e-05
1350    0.168308    0.705994    -1.23724  0.000122589
1360    0.167645    0.705759   -0.403118  0.000261516
1370    0.163077    0.704145   -0.531271  0.000102566
1380    0.165594    0.705034    0.495269  -5.63249e-05
1390    0.164204    0.704543   -0.499827  0.00028346
1400    0.159924     0.70303    -3.19383  8.27037e-05
1410     0.16255    0.703958    -2.07258  0.000258885
1420    0.154747      0.7012      -1.013  0.000331295
1430    0.155924    0.701616    -1.10899  -9.70863e-05
1440    0.156688    0.701886   -0.660019  0.000265504
1450    0.150614    0.699739   -0.113896  0.000317537
1460    0.150338    0.699641    -1.01169  -0.000185321
1470     0.15432    0.701049    0.655021  -0.000320673
1480    0.156751    0.701908    -1.65627  0.000188811
1490    0.150544    0.699714   -0.180072  0.000626626
1500    0.144219    0.697478    -1.33386  0.000158342
1510    0.147377    0.698595   -0.308224  7.5715e-05
1520    0.142704    0.696943    -1.36652  9.10759e-05
1530    0.145556    0.697951     -1.4321  0.000186045
1540    0.138983    0.695627    -2.10434   0.0003433
1550     0.13869    0.695524    -0.46876  -1.25781e-05
1560    0.139235    0.695716    -0.88579  0.000308069
1570    0.132528    0.693345    0.751982  0.000250447
1580    0.134226    0.693946    0.750823  -0.000122538
1590    0.134979    0.694212    -1.11093  0.000283376
1600    0.128558    0.691942   -0.243584  0.000251897
1610    0.129941    0.692431    -1.07796   -1.15e-05
1620    0.128788    0.692023    0.334263  -9.6336e-05
1630    0.131868    0.693112   0.0763281  -0.000281858
1640    0.134426    0.694016   0.0431303  0.000280012
1650    0.126268    0.691132   -0.404997  0.000253499
1660    0.129356    0.692224   -0.245997  -2.19278e-05
1670    0.126706    0.691287   -0.469826  0.000142822
1680    0.126499    0.691214   -0.246404  3.13453e-05
1690    0.126079    0.691066   -0.503744  0.000346411
1700    0.119571    0.688765   -0.920272  0.000309494
1710    0.119889    0.688878    -1.01689  -0.000262047
1720    0.124812    0.690618     -1.3721  9.12607e-05
1730    0.118064    0.688232    -1.56276  0.000804359
1740    0.108725    0.684931    -1.14316  0.000193717
1750     0.11419    0.686863    -1.11313  -0.000213647
1760    0.112998    0.686441    -1.43433  -0.000219869
1770    0.118587    0.688417    -1.72486  0.000157331
1780    0.109851    0.685329    -1.75574  0.000464523
1790    0.109297    0.685133    -1.01767  -0.000166149
1800    0.113174    0.686504   -0.409165  2.84702e-05
1810    0.108727    0.684932    -1.11382  0.000158132
1820    0.110011    0.685386   -0.793843  4.49684e-05
1830    0.107828    0.684614   -0.729359  1.22074e-05
1840    0.109767    0.685299    -1.24413  1.60187e-06
1850    0.107796    0.684602   -0.249193  0.000115769
1860    0.107452    0.684481    -2.20622  7.79912e-05
1870    0.106236    0.684051    -1.27579  0.000285475
1880    0.101742    0.682463    -1.33937  0.00023136
1890    0.101609    0.682415    -1.75662  -3.59144e-05
1900    0.102461    0.682716     -2.9126  -4.1436e-05
1910    0.102438    0.682708    -1.62894  9.5569e-05
1920    0.100549    0.682041    -1.11573  -4.70847e-05
1930    0.103379    0.683041    -2.33547  -0.000266869
1940    0.105887    0.683928    -1.43846  2.97178e-05
1950    0.102785    0.682831   -0.988391  0.000183803
1960    0.102211    0.682628    -3.10511  -3.22908e-06
1970     0.10285    0.682854    -3.29809  -2.52496e-05
1980    0.102716    0.682807    -2.94507  -0.000196895
1990    0.106787    0.684246    -3.68411  -2.53927e-05
2000    0.103224    0.682986    -3.04282  0.000334625
2010    0.100095     0.68188    -3.13834  -8.8606e-06
2020    0.103401    0.683049    -3.10692  3.60068e-05
2030   0.0993748    0.681626    -2.97805  0.000108004
2040    0.101241    0.682285    -2.97887  0.000164421
2050   0.0960864    0.680463    -3.13903  9.74067e-05
2060   0.0992925    0.681596     -3.5248  8.69609e-05
2070   0.0943471    0.679848    -4.35801  0.000204205
2080   0.0952084    0.680153    -3.39574  3.38927e-06
2090   0.0942794    0.679824    -3.78126  -5.28004e-05
2100   0.0962644    0.680526    -2.49845  9.33431e-05
2110   0.0924125    0.679164    -3.20432  7.06565e-05
2120   0.0948513    0.680026    -3.17247  0.000279557
2130   0.0868214    0.677188    -3.13852  0.000290896
2140   0.0890334     0.67797    -2.36973  -6.90293e-05
2150   0.0882019    0.677676    -2.08158  0.000213243
2160   0.0847685    0.676462    -3.14025  0.00028153
2170   0.0825714    0.675685    -2.65889  -4.0669e-05
2180   0.0855819     0.67675    -3.20514  -5.74544e-05
2190   0.0837204    0.676092    -2.49857  0.000152272
2200   0.0825365    0.675673    -3.42934  -0.000108956
2210   0.0858996    0.676862    -2.21139  0.000130303
2220   0.0799304    0.674752    -2.37108  0.000306788
2230   0.0797638    0.674693    -2.43528  -8.60591e-05
2240   0.0816516     0.67536    -1.82671  0.000119714
2250   0.0773695    0.673847    -2.62817  0.000423113
2260   0.0731893    0.672369    -2.91639  0.000160501
2270   0.0741595    0.672712    -2.72472  5.2109e-05
2280   0.0721471       0.672    -2.69262  0.000178526
2290    0.070589     0.67145    -3.10993  0.000127251
2300   0.0696021    0.671101    -3.20526  8.72646e-05
2310   0.0688437    0.670833    -2.24302  0.000237523
2320   0.0648517    0.669421    -3.14094  0.000168586
2330    0.065472    0.669641    -2.43538  -0.000131517
2340    0.067482    0.670351    -1.63392  1.31179e-05
2350   0.0652096    0.669548    -2.75723  0.000123086
2360   0.0650203    0.669481    -2.34004  5.37869e-05
2370   0.0641339    0.669168    -2.08274  0.000170196
2380   0.0616164    0.668278    -3.49549  9.48353e-05
2390   0.0622372    0.668497    -3.55935  0.000112767
2400    0.059361    0.667481    -1.95483  -0.000132385
2410   0.0648849    0.669433    -1.60351  0.000113442
2420   0.0570922    0.666678    -1.98687  0.000306029
2430   0.0587643     0.66727    -2.72488  -6.77396e-05
2440    0.058447    0.667157    -2.91833  2.59155e-05
2450    0.058246    0.667086    -2.18086  0.000225795
2460   0.0539311    0.665561     -2.5334  0.000237876
2470   0.0534885    0.665405    -2.34183  0.000297717
2480   0.0479768    0.663456    -2.40553  0.000180127
2490   0.0498859    0.664131    -3.43254  -0.000167515
2500   0.0513271     0.66464     -3.2089  -0.000126576
2510   0.0524175    0.665026    -3.11347  0.000311517
2520   0.0450967    0.662438    -1.98957  0.000465999
2530   0.0430975    0.661731    -3.08028  -8.48873e-05
2540   0.0467945    0.663038    -3.72373  0.000218705
2550   0.0387234    0.660185    -2.66237  0.000498456
2560   0.0368253    0.659514    -2.31017  -6.81188e-06
2570   0.0388596    0.660233    -3.56257  0.000184579
2580   0.0331338    0.658209    -2.31089  1.11453e-05
2590   0.0386367    0.660154    -2.98554  -3.00298e-05
2600   0.0337343    0.658421     -3.2415  0.000245059
2610   0.0337355    0.658422    -3.56235  -0.000120228
2620   0.0361389    0.659271    -2.50493  0.000234336
2630   0.0290488    0.656765    -3.53085  0.000433018
2640   0.0274785     0.65621    -3.78784  -4.77337e-05
2650   0.0300035    0.657103    -2.85808  9.12608e-05
2660   0.0256533    0.655565    -2.47186  0.000121265
2670   0.0275782    0.656245     -3.5963  -1.71984e-05
2680   0.0259973    0.655686    -2.08734  0.000328041
2690   0.0210174    0.653926     -2.1512  -3.55517e-05
2700   0.0267083    0.655938    -1.76809  -0.000241586
2710   0.0258491    0.655634    -2.37722  0.000244326
2720   0.0218218     0.65421      -2.377  0.000165509
2730   0.0225389    0.654464    -2.66625  7.57063e-06
2740   0.0216704    0.654157    -3.05024  5.02799e-05
2750   0.0215333    0.654108    -1.54291  3.82241e-05
2760   0.0209059    0.653886    -1.73602  4.44289e-05
2770   0.0206447    0.653794    -2.15314  0.000161184
2780   0.0176822    0.652747    -2.60168  0.000179916
2790   0.0170464    0.652522    -1.96019  6.9805e-05
2800   0.0162861    0.652253    -1.15811  0.000113096
2810   0.0147845    0.651723   -0.772991  0.000236789
2820   0.0115504    0.650579    -2.76199  -6.55138e-05
2830   0.0160948    0.652186    -1.60852  -0.00014557
2840   0.0144618    0.651608    -1.89724  0.00037419
2850  0.00861097     0.64954     -1.7358  0.000225947
2860  0.00994282    0.650011    -1.92903  7.1744e-05
2870  0.00717609    0.649033     -2.1528  -4.03992e-05
2880   0.0107508    0.650297    -2.05787  -8.37154e-05
2890  0.00885039    0.649625    -1.92937  -7.80753e-05
2900   0.0123123    0.650849    -1.60921  0.000103384
2910  0.00678272    0.648894   -0.998637  -0.000203707
2920   0.0163865    0.652289    -1.28883  -0.000140554
2930   0.0095938    0.649888    -2.08982  0.000291039
2940   0.0105657    0.650231    -2.28227  -9.10331e-05
2950   0.0114145    0.650531    -1.64106  8.49462e-05
2960  0.00886675    0.649631    -1.76956  0.000204719
2970  0.00732008    0.649084       -2.09  2.86302e-05
2980  0.00829415    0.649428    -2.44274  -0.000154439
2990   0.0104089    0.650176    -1.70558  6.67953e-05
3000  0.00695824    0.648956    -1.76965  7.92556e-05
3010  0.00882375    0.649615    -1.60968  0.000149684
3020  0.00396455    0.647898    -1.60946  -3.47676e-05
3030   0.0095191    0.649861    -1.38532  -9.77607e-05
3040  0.00591976    0.648589    -2.86133  0.000181889
3050  0.00588132    0.648575    -2.76431  -0.000117471
3060  0.00826919    0.649419    -2.60515  -0.000136862
3070  0.00861855    0.649543    -2.18772  4.18914e-05
3080  0.00743136    0.649123    -2.31518  0.000118896
3090  0.00624063    0.648702    -1.93006  1.00492e-05
3100  0.00723038    0.649052     -1.7379  -0.00019558
3110   0.0101522    0.650085     -2.0917  -9.18931e-06
3120  0.00741416    0.649117    -1.48159  0.000222592
3130   0.0057004    0.648511    -1.38535  0.000132857
3140  0.00475702    0.648178   -0.903932  -9.02067e-06
3150  0.00588082    0.648575    -1.67432  -0.000138455
3160  0.00752612    0.649157    -2.47697  -2.20796e-05
3170  0.00632241    0.648731    -1.73865  -0.000106815
3180  0.00966242    0.649912     -2.7344  0.000121004
3190  0.00390233    0.647876    -2.02765  6.20236e-05
3200  0.00842195    0.649473    -2.89466  -0.000204643
3210   0.0079952    0.649323    -3.05516  -2.97595e-06
3220  0.00848147    0.649494    -1.38764  0.000108383
3230  0.00582753    0.648556    -2.63923  0.000265782
3240  0.00316584    0.647615    -2.73478  6.96026e-05
3250  0.00443548    0.648064    -2.51067  -1.5352e-05
3260  0.00347288    0.647724    -2.83093  0.000109538
3270  0.00224472     0.64729    -2.31706  -0.000147374
3280  0.00642037    0.648766    -2.99162  -0.000299301
3290  0.00823075    0.649406    -2.18966  5.01955e-05
3300  0.00541646    0.648411    -1.74022  -2.99285e-06
3310   0.0082906    0.649427    -2.79989  -6.22934e-05
3320  0.00666233    0.648851    -1.64485  0.000395646
3330  0.000377689     0.64663    -1.58012  0.000123685
3340  0.00418864    0.647977    -2.57565  -0.00015508
3350  0.00347929    0.647726    -2.09464  -4.24731e-05
3360   0.0050381    0.648277    -2.03035  1.10356e-05
3370  0.00325858    0.647648    -2.54365  -0.000102954
3380  0.00709718    0.649005    -2.38374  -4.92091e-05
3390  0.00424276    0.647996    -2.19069  0.000252318
3400  0.00205082    0.647221    -1.58071  -7.63724e-05
3410  0.00577021    0.648536    -2.86553  -2.14136e-06
3420  0.00209364    0.647236    -2.41587  0.000186172
3430  0.00204677     0.64722    -1.64551  -8.81836e-06
3440  0.00227001    0.647299    -1.96743  0.000194122
3450  -0.00183567    0.645847    -2.35117  -6.9923e-05
3460  0.00366847    0.647793    -2.51368  0.000127411
3470  -0.00438389    0.644946    -2.76885  0.000153984
3480  0.00058879    0.646704    -2.44901  -0.000116847
3490  -0.00204694    0.645773    -2.80099   1.171e-05
3500  0.000354589    0.646622       -3.54  8.04275e-05
3510  -0.00365549    0.645204    -2.70569  -8.71719e-06
3520  0.000528933    0.646683    -3.37955  -0.000158789
3530  -0.000479698    0.646327    -3.70009  -0.000317469
3540  0.00687832    0.648928    -3.34849  -2.9254e-05
3550  0.000105382    0.646533    -3.70009  0.000389365
3560  -0.000908982    0.646175    -2.93061  -4.32066e-05
3570  0.000969513    0.646839    -3.05908  -7.76454e-05
3580  0.000643926    0.646724    -2.64167  -2.27119e-05
3590  0.00142375    0.646999    -3.57225  2.57638e-05
3600  0.00012865    0.646542    -3.57238  0.000157441
3610  -0.00172506    0.645886    -3.18714  -4.35438e-05
3620  0.000999526     0.64685    -2.67412  -0.000370312
3630  0.00568118    0.648504    -2.03389  1.89013e-05
3640   0.0006215    0.646716    -2.83478  0.000248507
3650  0.000711033    0.646748    -3.21983  2.59998e-05
3660  0.000101504    0.646532    -3.02707  -0.000401058
3670   0.0087322    0.649583    -2.38728  -0.00020525
3680  0.00420651    0.647983    -3.22074  0.000439223
3690  -5.22694e-05    0.646478    -3.82994  1.85556e-05
3700   0.0038354    0.647852    -3.70207  -0.000114596
3710  0.00223966    0.647288     -3.1883  -2.47015e-06
3720   0.0038848    0.647869    -2.83578  0.000139138
3730  -0.000543096    0.646304    -2.70697  0.000167389
3740  0.000537026    0.646686    -2.83628  -0.000455621
3750  0.00856932    0.649525    -3.41457  -0.000122698
3760  0.00299099    0.647554    -3.54178  0.000217289
3770  0.00422354    0.647989    -2.57982  -3.80218e-05
3780  0.00375143    0.647822    -2.51518  0.000154422
3790  0.00113509    0.646897    -3.57379  6.18634e-05
3800  0.00251416    0.647385    -3.70232  -0.000274178
3810  0.00661866    0.648836     -2.4522  -0.000181594
3820  0.00614604    0.648669    -1.90652  -4.60561e-05
3830  0.00753978    0.649162    -2.00288  -0.000175583
3840   0.0096577     0.64991    -2.38859  0.000263497
3850  0.00226984    0.647299    -2.16235  -0.000126205
3860   0.0121818    0.650802    -2.38891  -0.000248136
3870  0.00723257    0.649053    -1.81065  0.000285737
3880  0.00646708    0.648782    -2.19543  -0.000162684
3890   0.0104863    0.650203    -2.19608  4.78771e-05
3900  0.00550953    0.648444    -2.22753  0.000178264
3910  0.00692098    0.648943    -2.19586  1.90109e-05
3920  0.00512932    0.648309    -1.39353  -1.7662e-05
3930  0.00727422    0.649068    -2.03608  4.54406e-06
3940  0.00503844    0.648277    -1.84326  0.000165323
3950  0.00396776    0.647899    -1.97182  -0.000142198
3960   0.0078824    0.649283    -2.90302  1.94493e-05
3970  0.00357877    0.647761    -1.90774  -9.16317e-05
3980  0.00971503     0.64993    -2.16583  -0.00012054
3990  0.00598957    0.648614    -2.83895  0.000210654
4000  0.00550195    0.648441    -3.28786  7.84126e-05
4010  0.00442132    0.648059    -2.35718  0.000182353
4020  0.00185489    0.647152    -2.16452  -0.00010663
4030  0.00655391    0.648813    -1.23481  -2.28467e-06
4040  0.00190058    0.647168    -2.03661  -3.07716e-06
4050  0.00661545    0.648835    -2.71148  -0.000241046
4060  0.00672151    0.648872    -2.45486  5.66617e-05
4070  0.00548222    0.648434    -2.29442  0.000139121
4080  0.00393909    0.647889     -3.0639  0.000147063
4090  0.00254097    0.647394     -2.8076  -9.28035e-05
4100  0.00579516    0.648545    -2.07047  2.76606e-05
4110  0.00198776    0.647199    -2.58349  0.000313549
4120  -0.00047582    0.646328    -3.16049  -6.27317e-05
4130  0.00324239    0.647642    -1.65284  -0.000175887
4140  0.00304191    0.647572    -2.80844  0.000179225
4150  -0.000342112    0.646375    -3.00077  0.000209988
4160  -0.00115785    0.646087    -3.25673  3.60659e-05
4170  -0.00106343     0.64612    -3.00083  6.66688e-05
4180  -0.00249123    0.645616    -3.22497  0.000326136
4190  -0.00758615    0.643814    -3.60953  9.0131e-05
4200  -0.00429385    0.644978    -2.16661  -0.000283949
4210  -0.00190716    0.645822    -2.55201  9.06959e-05
4220  -0.00610777    0.644337    -2.68039  6.74276e-05
4230  -0.00325571    0.645345    -2.55236  -8.56122e-05
4240  -0.00439552    0.644942    -2.10332  0.000252874
4250  -0.0083132    0.643557    -3.25764  2.18773e-05
4260  -0.00483307    0.644788    -2.26414  -5.90133e-07
4270  -0.0083014    0.643562    -1.71767  0.000176966
4280  -0.00837238    0.643537    -2.26351  3.81904e-05
4290  -0.0090652    0.643292    -2.23129  -2.3909e-05
4300  -0.0078942    0.643706    -2.74575  -0.000265284
4310  -0.00375952    0.645167    -2.58584  0.000163182
4320  -0.0111578    0.642552    -2.29605  0.000592592
4330  -0.0156114    0.640978    -2.68054  0.000109504
4340  -0.0133479    0.641778    -3.67589  -4.63765e-05
4350  -0.0146838    0.641305    -3.61156  7.09937e-05
4360  -0.0147678    0.641276    -3.83614  8.71129e-05
4370  -0.0164261    0.640689    -3.51529  -0.00029915
4380  -0.0087848    0.643391     -2.7786  -0.000307268
4390  -0.0102807    0.642862    -4.09354  7.86149e-05
4400  -0.0103571    0.642835    -2.74603  -9.54085e-05
4410  -0.00837255    0.643536    -3.51642  -0.000103493
4420  -0.00828723    0.643567    -3.38842  0.00022217
4430   -0.012816    0.641966    -3.32319  7.90701e-05
4440  -0.00986863    0.643008    -3.29203  -0.000303247
4450  -0.00675102     0.64411    -2.65063  2.36562e-05
4460  -0.0103418     0.64284    -3.00346  -4.09641e-05
4470  -0.00593174    0.644399    -3.35742  0.000104092
4480  -0.0124236    0.642104    -3.58078  -0.000194113
4490  -0.00204947    0.645772    -3.61398  -0.00026579
4500  -0.0071078    0.643984    -3.58181  0.000296907
4510  -0.00798761    0.643673    -3.99881  9.62094e-05
4520  -0.00903199    0.643303    -3.58153  8.84028e-05
4530  -0.00975567    0.643048    -3.51783  0.000145613
4540  -0.0119442    0.642274    -3.61385  9.72211e-05
4550  -0.0117001     0.64236    -3.00472  0.000252562
4560  -0.0169955    0.640488    -3.10033  -0.000106082
4570  -0.00957846     0.64311    -2.26708  0.000139964
4580  -0.0197948    0.639499    -3.19672  0.000187993
4590  -0.0133383    0.641781    -3.26193  1.46693e-06
4600  -0.0198241    0.639488    -2.49132  0.000666283
4610   -0.026664     0.63707    -2.81083  -2.31756e-05
4620  -0.0193606    0.639652    -2.81211  -0.000657465
4630  -0.0135147    0.641719    -3.80765  1.79486e-05
4640  -0.0197196    0.639525    -4.64102  0.000439367
4650   -0.022302    0.638612    -3.96702  0.000333437
4660  -0.0263883    0.637168    -4.35204  6.84898e-05
4670  -0.0236718    0.638128    -4.76961  -0.000197191
4680  -0.0224445    0.638562    -4.70606  -6.09532e-06
4690  -0.0235499    0.638171    -3.80765  0.000294665
4700  -0.0283378    0.636479    -4.22436  -6.17113e-06
4710  -0.0234265    0.638215    -4.41747  8.7096e-05
4720  -0.0300797    0.635863    -5.63614  0.000431105
4730  -0.0320486    0.635167    -3.80755  -6.38952e-05
4740  -0.0288018    0.636315    -3.58369  0.000206464
4750  -0.0361779    0.633707    -3.10105  1.16932e-05
4760  -0.0290357    0.636232    -4.00078  -0.000215704
4770  -0.0318638    0.635232    -3.77536  0.000190075
4780  -0.0328372    0.634888     -4.4496  -1.31011e-05
4790  -0.0316018    0.635325    -4.64214  0.000140402
4800  -0.0356452    0.633895    -4.35302  0.000370987
4810  -0.0390215    0.632702    -4.06395  5.59788e-05
4820  -0.0367648      0.6335    -4.35336  -0.000303314
4830  -0.0329552    0.634846    -3.51999  6.49573e-05
4840  -0.0380639     0.63304    -3.19876  4.71184e-05
4850  -0.0338976    0.634513    -3.61629  -0.000167372
4860  -0.0347165    0.634224    -3.19873  1.29577e-05
4870  -0.0341567    0.634422    -3.68012  0.000108366
4880  -0.0368838    0.633458    -3.23105  0.000125818
4890  -0.0366731    0.633532    -3.77689  -0.000342685
4900  -0.0300301     0.63588    -3.29597  -0.000247639
4910  -0.0317203    0.635283     -3.9383  0.000422354
4920  -0.0384772    0.632894    -2.65405  0.000187512
4930  -0.0354705    0.633957    -4.09853  0.000110381
4940  -0.0406848    0.632114    -3.84147  0.000145107
4950  -0.0383727    0.632931    -3.32864  5.84912e-05
4960  -0.0418547      0.6317    -3.13575  0.000163873
4970  -0.0416501    0.631773    -2.65468  -9.11428e-05
4980  -0.0400318    0.632345    -3.36102  0.000165188
4990  -0.0449539    0.630605    -3.84153  0.000421519
