Time   Number   
ps   
0          31          28
10          35          36
20          34          33
30          31          35
40          34          35
50          33          38
60          30          39
70          34          35
80          35          34
90          34          38
100          32          32
110          37          29
120          33          37
130          33          30
140          32          37
150          35          38
160          36          34
170          30          36
180          34          32
190          29          32
200          34          28
210          35          34
220          35          25
230          33          32
240          36          28
250          32          35
260          37          27
270          34          30
280          34          32
290          34          32
300          30          28
310          31          33
320          32          27
330          34          28
340          33          30
350          34          31
360          32          27
370          29          33
380          30          27
390          31          24
400          34          23
410          30          31
420          30          26
430          33          26
440          34          29
450          32          31
460          33          31
470          35          29
480          33          30
490          28          31
500          33          32
510          31          33
520          30          34
530          34          29
540          35          30
550          34          30
560          38          30
570          37          31
580          33          28
590          31          35
600          32          31
610          34          32
620          31          30
630          31          33
640          33          34
650          34          32
660          31          31
670          31          36
680          31          32
690          31          33
700          32          31
710          32          32
720          34          32
730          33          32
740          33          34
750          30          32
760          32          29
770          28          35
780          29          37
790          34          31
800          34          32
810          31          33
820          29          35
830          34          27
840          32          30
850          34          27
860          31          35
870          32          30
880          31          28
890          36          32
900          32          32
910          34          28
920          32          30
930          35          34
940          33          28
950          34          31
960          33          28
970          37          32
980          34          29
990          33          26
1000          34          33
1010          37          33
1020          31          34
1030          31          31
1040          35          30
1050          29          31
1060          31          36
1070          34          21
1080          32          26
1090          32          27
1100          31          26
1110          32          26
1120          32          26
1130          28          31
1140          32          33
1150          29          29
1160          35          25
1170          33          26
1180          34          29
1190          33          32
1200          31          25
1210          30          29
1220          29          32
1230          33          29
1240          33          28
1250          31          31
1260          29          27
1270          30          29
1280          32          30
1290          33          26
1300          31          27
1310          33          23
1320          32          31
1330          38          22
1340          33          26
1350          34          29
1360          34          27
1370          35          30
1380          35          29
1390          31          30
1400          33          30
1410          35          32
1420          33          29
1430          34          30
1440          33          32
1450          30          27
1460          34          33
1470          37          27
1480          37          34
1490          39          30
1500          34          34
1510          33          27
1520          33          23
1530          35          31
1540          33          31
1550          32          29
1560          32          30
1570          31          28
1580          31          30
1590          32          26
1600          31          33
1610          34          31
1620          34          27
1630          33          24
1640          36          30
1650          37          27
1660          36          28
1670          35          31
1680          39          29
1690          35          28
1700          31          34
1710          37          27
1720          32          29
1730          36          28
1740          35          31
1750          36          28
1760          33          35
1770          33          32
1780          33          30
1790          33          34
1800          32          37
1810          33          28
1820          33          35
1830          35          33
1840          33          28
1850          33          23
1860          33          31
1870          32          31
1880          33          30
1890          36          24
1900          33          28
1910          37          27
1920          33          30
1930          31          33
1940          31          27
1950          35          26
1960          31          26
1970          33          25
1980          34          19
1990          33          24
2000          32          28
2010          33          23
2020          33          25
2030          32          24
2040          33          24
2050          31          29
2060          35          24
2070          29          30
2080          32          28
2090          35          22
2100          34          25
2110          35          21
2120          34          33
2130          36          24
2140          32          28
2150          33          31
2160          31          34
2170          35          28
2180          36          30
2190          37          25
2200          37          28
2210          34          27
2220          35          26
2230          37          27
2240          36          27
2250          36          26
2260          34          31
2270          37          25
2280          35          35
2290          34          35
2300          34          26
2310          35          29
2320          33          28
2330          33          29
2340          37          22
2350          33          26
2360          32          28
2370          33          27
2380          34          32
2390          32          27
2400          29          30
2410          32          27
2420          31          30
2430          31          32
2440          36          22
2450          29          33
2460          35          27
2470          34          25
2480          33          28
2490          29          38
2500          31          29
2510          34          29
2520          31          27
2530          33          33
2540          32          34
2550          33          29
2560          33          30
2570          29          25
2580          30          32
2590          29          32
2600          34          23
2610          29          33
2620          31          28
2630          31          36
2640          32          27
2650          33          28
2660          35          26
2670          34          32
2680          30          34
2690          33          31
2700          31          29
2710          34          30
2720          26          36
2730          28          29
2740          34          27
2750          33          27
2760          27          25
2770          30          27
2780          34          26
2790          32          34
2800          32          27
2810          29          29
2820          31          30
2830          32          31
2840          30          30
2850          31          31
2860          31          44
2870          33          29
2880          30          31
2890          29          34
2900          32          30
2910          35          24
2920          31          28
2930          30          32
2940          28          28
2950          30          26
2960          27          23
2970          29          24
2980          31          29
2990          27          31
3000          29          29
3010          31          28
3020          33          26
3030          33          29
3040          33          27
3050          31          29
3060          29          32
3070          30          29
3080          28          25
3090          34          25
3100          29          32
3110          29          26
3120          35          23
3130          30          31
3140          29          32
3150          31          31
3160          31          27
3170          31          26
3180          30          29
3190          34          29
3200          31          31
3210          31          32
3220          33          30
3230          32          28
3240          29          35
3250          31          36
3260          31          31
3270          31          28
3280          31          29
3290          34          27
3300          35          20
3310          30          30
3320          32          25
3330          33          28
3340          31          32
3350          34          25
3360          32          25
3370          34          27
3380          34          27
3390          36          28
3400          35          26
3410          30          30
3420          31          24
3430          33          25
3440          27          32
3450          32          32
3460          32          22
3470          32          27
3480          32          25
3490          35          27
3500          31          27
3510          34          25
3520          29          29
3530          35          26
3540          35          32
3550          30          34
3560          36          27
3570          31          27
3580          35          28
3590          32          30
3600          31          34
3610          31          31
3620          33          23
3630          29          34
3640          29          36
3650          33          31
3660          32          26
3670          36          26
3680          32          32
3690          28          37
3700          30          28
3710          30          32
3720          30          35
3730          29          27
3740          30          33
3750          27          33
3760          28          33
3770          34          27
3780          37          25
3790          30          35
3800          37          29
3810          32          34
3820          31          37
3830          32          28
3840          29          32
3850          31          33
3860          35          26
3870          33          24
3880          33          28
3890          32          31
3900          37          33
3910          33          30
3920          33          31
3930          36          26
3940          37          28
3950          35          29
3960          35          37
3970          37          30
3980          37          26
3990          31          30
4000          29          39
4010          35          32
4020          33          35
4030          34          30
4040          33          35
4050          33          38
4060          35          32
4070          31          31
4080          37          27
4090          36          32
4100          36          33
4110          32          31
4120          36          30
4130          37          29
4140          34          34
4150          39          30
4160          38          28
4170          33          36
4180          33          38
4190          35          32
4200          36          32
4210          34          32
4220          37          27
4230          38          26
4240          36          34
4250          32          38
4260          39          27
4270          35          36
4280          34          32
4290          35          34
4300          34          33
4310          32          37
4320          37          30
4330          37          34
4340          34          33
4350          34          33
4360          36          27
4370          37          32
4380          34          36
4390          37          35
4400          34          35
4410          31          34
4420          33          36
4430          33          26
4440          35          29
4450          30          38
4460          32          36
4470          33          34
4480          33          33
4490          29          33
4500          29          34
4510          32          36
4520          35          32
4530          30          31
4540          38          19
4550          32          33
4560          31          36
4570          33          24
4580          34          27
4590          35          28
4600          31          32
4610          33          26
4620          33          25
4630          33          24
4640          34          21
4650          31          23
4660          32          26
4670          27          36
4680          31          33
4690          33          26
4700          33          34
4710          34          30
4720          35          32
4730          32          31
4740          36          29
4750          29          31
4760          35          33
4770          33          32
4780          35          26
4790          34          27
4800          31          30
4810          34          23
4820          31          28
4830          30          27
4840          35          30
4850          35          27
4860          35          29
4870          34          34
4880          32          32
4890          30          30
4900          32          23
4910          37          21
4920          28          23
4930          32          29
4940          32          25
4950          35          22
4960          32          29
4970          33          23
4980          30          25
4990          30          24
5000          29          24
5010          32          24
5020          34          17
5030          29          26
5040          28          27
5050          32          26
5060          31          22
5070          29          27
5080          29          23
5090          30          29
5100          30          26
5110          31          23
5120          30          27
5130          27          24
5140          28          30
5150          33          26
5160          29          27
5170          27          27
5180          32          23
5190          30          30
5200          32          31
5210          30          32
5220          33          31
5230          32          25
5240          31          29
5250          34          25
5260          33          29
5270          34          28
5280          31          28
5290          33          23
5300          32          23
5310          35          27
5320          30          28
5330          32          23
5340          33          25
5350          31          29
5360          33          34
5370          35          29
5380          33          30
5390          27          32
5400          29          32
5410          30          29
5420          34          31
5430          34          26
5440          34          24
5450          31          25
5460          32          31
5470          29          29
5480          31          28
5490          32          29
5500          33          23
5510          34          22
5520          31          30
5530          29          31
5540          34          30
5550          33          27
5560          32          27
5570          35          23
5580          35          28
5590          31          26
5600          29          28
5610          30          32
5620          32          26
5630          32          18
5640          26          30
5650          32          22
5660          30          28
5670          28          28
5680          30          31
5690          31          28
5700          33          24
5710          30          28
5720          29          31
5730          30          30
5740          35          32
5750          30          25
5760          32          27
5770          31          26
5780          28          26
5790          28          30
5800          33          21
5810          29          22
5820          32          25
5830          31          27
5840          32          32
5850          29          28
5860          29          24
5870          31          26
5880          33          32
5890          27          32
5900          33          26
5910          33          27
5920          30          30
5930          32          31
5940          29          33
5950          34          29
5960          31          34
5970          31          24
5980          30          32
5990          31          26
6000          27          26
6010          31          29
6020          31          27
6030          30          33
6040          29          31
6050          28          26
6060          33          27
6070          31          26
6080          31          29
6090          31          26
6100          30          28
6110          27          30
6120          31          30
6130          34          24
6140          35          28
6150          32          25
6160          31          27
6170          27          28
6180          33          31
6190          30          27
6200          31          30
6210          31          27
6220          34          28
6230          25          37
6240          29          33
6250          28          28
6260          32          28
6270          33          19
6280          33          27
6290          29          32
6300          29          24
6310          29          28
6320          32          19
6330          30          27
6340          28          29
6350          28          26
6360          29          23
6370          32          25
6380          34          24
6390          30          29
6400          28          30
6410          30          28
6420          30          26
6430          26          27
6440          28          38
6450          33          28
6460          29          32
6470          25          34
6480          31          28
6490          31          28
6500          30          31
6510          32          25
6520          31          24
6530          32          26
6540          29          28
6550          34          25
6560          30          30
6570          34          30
6580          33          26
6590          30          29
6600          31          31
6610          33          29
6620          32          29
6630          30          28
6640          35          27
6650          30          30
6660          30          28
6670          32          27
6680          31          30
6690          32          28
6700          31          30
6710          32          29
6720          32          30
6730          30          28
6740          29          28
6750          32          22
6760          33          25
6770          32          27
6780          36          27
6790          32          22
6800          30          30
6810          29          28
6820          33          26
6830          32          34
6840          33          27
6850          32          28
6860          33          26
6870          30          32
6880          34          29
6890          33          27
6900          32          25
6910          28          33
6920          31          30
6930          31          28
6940          30          33
6950          30          28
6960          30          27
6970          30          25
6980          33          27
6990          29          32
7000          29          27
7010          29          29
7020          31          31
7030          27          24
7040          33          26
7050          31          32
7060          31          28
7070          29          25
7080          30          31
7090          33          24
7100          36          22
7110          33          25
7120          31          27
7130          30          27
7140          32          23
7150          29          31
7160          28          33
7170          32          30
7180          32          30
7190          28          36
7200          29          25
7210          32          23
7220          31          31
7230          36          24
7240          31          28
7250          28          31
7260          31          24
7270          30          30
7280          29          30
7290          33          27
7300          29          28
7310          31          27
7320          29          29
7330          30          29
7340          27          32
7350          29          37
7360          30          31
7370          29          25
7380          30          29
7390          31          31
7400          34          29
7410          29          28
7420          29          28
7430          34          18
7440          29          29
7450          33          32
7460          30          24
7470          31          28
7480          26          32
7490          28          24
7500          30          27
7510          35          29
7520          28          29
7530          33          24
7540          26          30
7550          33          28
7560          32          27
7570          33          24
7580          31          30
7590          29          28
7600          34          28
7610          28          31
7620          29          29
7630          35          22
7640          32          25
7650          31          25
7660          32          25
7670          31          23
7680          31          21
7690          30          29
7700          31          28
7710          31          21
7720          30          21
7730          33          31
7740          31          23
7750          27          28
7760          32          25
7770          32          28
7780          29          24
7790          33          28
7800          30          29
7810          27          34
7820          32          24
7830          25          31
7840          30          31
7850          35          25
7860          31          27
7870          31          29
7880          28          31
7890          32          26
7900          29          25
7910          29          24
7920          31          23
7930          29          24
7940          30          20
7950          28          27
7960          29          25
7970          29          27
7980          31          23
7990          34          23
8000          30          29
8010          34          28
8020          30          26
8030          32          29
8040          31          28
8050          31          31
8060          30          26
8070          31          24
8080          29          27
8090          32          27
8100          28          34
8110          26          22
8120          27          33
8130          31          24
8140          28          29
8150          28          23
8160          30          26
8170          32          29
8180          30          24
8190          32          23
8200          32          25
8210          31          27
8220          31          26
8230          33          24
8240          30          23
8250          31          22
8260          27          22
8270          28          24
8280          32          23
8290          31          25
8300          30          28
8310          36          22
8320          33          20
8330          33          31
8340          32          31
8350          32          25
8360          34          26
8370          34          23
8380          31          22
8390          32          23
8400          32          25
8410          30          26
8420          30          23
8430          29          24
8440          29          29
8450          31          26
8460          32          30
8470          35          22
8480          29          27
8490          33          29
8500          35          25
8510          34          22
8520          32          31
8530          31          33
8540          29          30
8550          32          27
8560          34          25
8570          34          23
8580          33          28
8590          33          27
8600          33          28
8610          30          27
8620          32          29
8630          32          28
8640          35          21
8650          31          23
8660          30          24
8670          33          20
8680          29          27
8690          30          25
8700          32          23
8710          31          28
8720          34          24
8730          34          24
8740          33          26
8750          32          28
8760          32          24
8770          32          30
8780          29          28
8790          30          28
8800          33          22
8810          30          26
8820          34          23
8830          33          21
8840          32          28
8850          31          28
8860          32          29
8870          32          30
8880          30          31
8890          32          26
8900          31          26
8910          34          30
8920          31          30
8930          30          26
8940          33          25
8950          29          34
8960          30          27
8970          31          28
8980          29          26
8990          28          31
9000          29          24
9010          31          33
9020          30          25
9030          29          27
9040          32          31
9050          33          27
9060          34          27
9070          28          32
9080          34          23
9090          37          24
9100          29          36
9110          30          30
9120          32          33
9130          33          30
9140          33          23
9150          32          26
9160          34          23
9170          32          27
9180          29          31
9190          34          24
9200          34          30
9210          27          26
9220          36          28
9230          34          27
9240          32          26
9250          32          26
9260          33          19
9270          31          23
9280          30          28
9290          28          30
9300          31          30
9310          33          28
9320          32          22
9330          31          30
9340          32          28
9350          32          35
9360          33          28
9370          34          31
9380          32          34
9390          34          28
9400          33          27
9410          31          29
9420          34          25
9430          33          24
9440          33          30
9450          31          32
9460          30          22
9470          31          26
9480          31          24
9490          29          26
9500          30          26
9510          32          23
9520          30          31
9530          34          26
9540          34          19
9550          32          27
9560          30          28
9570          33          28
9580          33          31
9590          32          28
9600          30          27
9610          31          18
9620          32          23
9630          30          26
9640          33          22
9650          31          20
9660          33          22
9670          32          23
9680          32          23
9690          28          32
9700          27          28
9710          35          22
9720          32          28
9730          32          29
9740          32          28
9750          24          32
9760          29          23
9770          30          29
9780          31          27
9790          32          33
9800          31          26
9810          30          30
9820          34          25
9830          33          26
9840          33          26
9850          29          21
9860          29          27
9870          28          28
9880          30          28
9890          28          26
9900          28          28
9910          29          29
9920          32          23
9930          32          25
9940          29          30
9950          33          15
9960          29          26
9970          34          21
9980          32          26
9990          28          23
10000          37          20
