Time   C(t)   
ps   
0           1           1  6.66543e-10   0.0206001
10    0.796629    0.838135    -0.29387   0.0116056
20    0.767888     0.81526   -0.936669  0.00261102
30    0.744409    0.796573   -0.411292  0.00209133
40    0.726062     0.78197    -0.70422  0.00168893
50     0.71063    0.769688    0.170003  0.00151226
60    0.695817    0.757898    0.345452  0.00137101
70     0.68321    0.747864   -0.181466  0.00128722
80    0.670072    0.737408    -1.05649  0.00119942
90    0.659222    0.728772    -1.29116  0.00119473
100    0.646178     0.71839  -0.0648417  0.00110284
110    0.637165    0.711216    -0.47485  0.000989202
120    0.626393    0.702644   -0.417337  0.00117989
130    0.613567    0.692435     1.04354  0.00103322
140    0.605729    0.686197    0.575962  0.000715494
150    0.599257    0.681045    0.983005  0.000826234
160    0.589204    0.673044     1.21734  0.000875118
170    0.581755    0.667115    0.224095  0.000734761
180    0.574509    0.661348     1.45018  0.000696084
190    0.567833    0.656035    0.982264  0.000686571
200    0.560778    0.650419     1.79971  0.000713584
210    0.553561    0.644676     2.55874  0.000634432
220    0.548089     0.64032     2.79147  0.000613809
230    0.541285    0.634905     3.14163  0.000585645
240    0.536376    0.630998     3.19971  0.00060164
250    0.529252    0.625328      2.0911  0.000624833
260     0.52388    0.621052     2.67434  0.000445777
270    0.520337    0.618232     1.50616  0.000487328
280    0.514133    0.613295      2.1485  0.000587824
290     0.50858    0.608875    0.688081  0.000481984
300    0.504493    0.605622     2.73236  0.000427574
310    0.500029    0.602069      3.4907  0.000428432
320    0.495925    0.598802     3.95771  0.000399694
330    0.492035    0.595706     2.90616  0.000526629
340    0.485392    0.590419     2.96487  0.000486758
350      0.4823    0.587958     5.24183  0.000424765
360    0.476897    0.583658     5.00841  0.000511086
370    0.472078    0.579823     5.30048  0.000508454
380    0.466728    0.575564      4.2491  0.000397661
390    0.464125    0.573493     3.48922  0.000275472
400    0.461218    0.571179     4.54003  0.000388099
410    0.456363    0.567315     4.07245  0.000534658
420    0.450525    0.562669     3.43023  0.000535722
430    0.445648    0.558787     3.07978  0.000446959
440    0.441586    0.555554     2.84614  0.000406665
450    0.437515    0.552314     3.42914  0.00045635
460    0.432459    0.548289     3.54582  0.000449733
470     0.42852    0.545155        4.83  0.000420625
480    0.424046    0.541594     3.77867  0.000297166
490    0.422577    0.540424     4.71252  0.000313024
500    0.417786    0.536611     3.77839  0.000479619
510    0.412985     0.53279     3.54502  0.00045796
520    0.408627    0.529321     1.38457  0.00034924
530       0.406    0.527231     3.25221  0.000350074
540    0.401625    0.523749    0.741374  0.000327976
550     0.39944     0.52201     1.90881  0.000233893
560    0.396947    0.520026     1.49937  0.000230579
570    0.394829    0.518339     2.84226  0.000356618
580    0.389815    0.514349     4.94542  0.000402898
590    0.386771    0.511926     3.25147  0.000323816
600    0.383339    0.509194     4.01026  0.000335933
610    0.380052    0.506579     3.25107  0.000321355
620    0.376912    0.504079     3.36838  0.000276186
630    0.374528    0.502182     3.25084  0.000276834
640    0.371375    0.499672     2.54973  0.000300346
650    0.368521    0.497401     2.25766  0.000320192
660    0.364971    0.494575     3.48323  0.000355411
670    0.361413    0.491744     4.12598  0.000263926
680    0.359693    0.490374     3.48409  0.000206862
690    0.357276    0.488451     4.65198  0.000311272
700    0.353467    0.485419     3.01594  0.000362001
710    0.350036    0.482688     3.54206  0.00030874
720    0.347292    0.480505     4.18423  0.000170323
730     0.34663    0.479977     5.40952  0.000159214
740    0.344108     0.47797     5.40981   0.0003686
750    0.339258     0.47411     4.94286  0.000427413
760     0.33556    0.471167     4.70961  0.000226584
770    0.334726    0.470503     4.47454  0.000133964
780     0.33288    0.469034     4.88323  0.000180875
790    0.331108    0.467624     3.65669  0.000231908
800    0.328242    0.465343     5.64135  0.000353195
810    0.324044    0.462002     4.59082  0.000373408
820    0.320774    0.459399     4.06498  0.00028441
830    0.318356    0.457474     3.01309  0.00026162
840    0.315542    0.455234     3.18882  0.000250414
850    0.313348    0.453488      4.5903  0.000254917
860    0.310443    0.451176     4.47288  0.000314301
870    0.307062    0.448485      3.7134  0.000275663
880     0.30493    0.446788     2.83701  0.000233105
890      0.3024    0.444774     2.31129  0.000339891
900    0.298132    0.441378     2.95386  0.000230172
910    0.297796    0.441111     3.77114  0.000258523
920    0.292962    0.437263     3.42104  0.000258835
930     0.29262     0.43699     2.83638  0.000125216
940    0.290458    0.435269     2.36955  0.00026394
950    0.287341    0.432789     2.83621  0.000288245
960    0.284693    0.430681     2.36852  0.00020958
970    0.283149    0.429453     3.59541  0.000237915
980    0.279934    0.426894     4.47214  0.000222422
990    0.278701    0.425912     3.59512  0.000187202
1000     0.27619    0.423914     1.95994  8.79318e-05
1010    0.276942    0.424513     2.60143  8.03247e-05
1020    0.274584    0.422635     3.36074  0.000315969
1030    0.270623    0.419483     2.25161  0.000296594
1040    0.268652    0.417914     4.87913  0.000117247
1050    0.268278    0.417617     3.94431  0.00015766
1060    0.265499    0.415405     3.76955  0.000181958
1070    0.264639     0.41472     4.76233  0.000186497
1080    0.261769    0.412436     5.11203  0.000222985
1090    0.260179    0.411171     4.93698   0.0001994
1100    0.257781    0.409262     4.81985  0.000195777
1110    0.256264    0.408054     4.87759  0.000224507
1120    0.253291    0.405688     4.29373  0.000281467
1130    0.250634    0.403574     3.82626  0.000237647
1140    0.248538    0.401905     3.88503  0.000254419
1150    0.245546    0.399524     3.12532  0.000263058
1160    0.243277    0.397718     2.71645  0.000320487
1170    0.239136    0.394422       3.943  0.000215481
1180    0.238967    0.394288     3.00756  0.000155205
1190    0.236032    0.391952     3.12561  0.000155413
1200    0.235859    0.391814     3.06627  0.000111078
1210     0.23381    0.390184     2.36504  0.000164269
1220    0.232573    0.389199     3.00767  0.000168786
1230    0.230435    0.387497     2.89065  0.000128221
1240    0.230009    0.387158     1.60527  0.000124514
1250    0.227944    0.385515     2.24813  0.000227183
1260    0.225465    0.383542    0.437382  0.000174329
1270    0.224458     0.38274     2.36407  0.000162481
1280    0.222216    0.380955     1.72207  0.000129883
1290     0.22186    0.380672     1.07961  0.000126176
1300    0.219692    0.378947     1.60522  0.000167588
1310    0.218508    0.378005    0.787938  -4.65862e-05
1320    0.220624    0.379688    0.554006  4.02622e-05
1330    0.217703    0.377364     1.19715  0.00028827
1340    0.214858      0.3751    0.846649  0.000293102
1350    0.211841    0.372698    0.087739  0.000223281
1360    0.210393    0.371545     1.19641  6.19724e-05
1370    0.210602    0.371712    0.553892  6.22079e-05
1380    0.209149    0.370555    0.262048  0.000224535
1390    0.206111    0.368137     1.43045  0.000100007
1400    0.207148    0.368963     1.13718  -4.96663e-05
1410    0.207104    0.368928    0.903422  2.53029e-05
1420    0.206642     0.36856     1.48745  0.000129852
1430    0.204507    0.366861     1.66262  0.000155168
1440    0.203539     0.36609    0.553265  0.000151412
1450    0.201479    0.364451     1.25403  0.000181071
1460    0.199918    0.363208     2.30542  0.000131115
1470    0.198857    0.362364     2.13008  9.36128e-05
1480    0.198045    0.361718     1.89644  7.28019e-05
1490    0.197401    0.361205     2.59686  0.000169919
1500    0.194647    0.359013     2.18851  0.000153312
1510    0.194334    0.358764     2.12928  0.000103126
1520    0.192584    0.357372     2.42101  0.00012443
1530    0.191846    0.356784     3.12179  5.27889e-05
1540    0.191529    0.356531     2.07006  0.000197098
1550    0.187904    0.353646     2.24682  0.000184637
1560    0.187836    0.353592     1.60379  5.77934e-05
1570    0.186748    0.352726     1.54531  0.000147223
1580    0.184892    0.351249    0.669661  9.21428e-05
1590    0.184905    0.351259     1.36952  0.000130851
1600    0.182274    0.349166     1.54514  0.000177981
1610    0.181345    0.348426    0.844539  0.000105835
1620    0.180158    0.347481     1.01953  0.000165999
1630    0.178026    0.345784   -0.207471  0.000179189
1640    0.176574    0.344629    0.318135  0.000132458
1650    0.175376    0.343675   -0.265954  0.000141398
1660    0.173746    0.342378     1.31092  0.000167504
1670    0.172026    0.341009  -0.0905616  7.74689e-05
1680    0.172197    0.341145    0.434417  5.62228e-05
1690    0.170902    0.340114     1.42692  8.2168e-05
1700    0.170553    0.339837     1.48534  9.97141e-05
1710    0.168908    0.338527     1.13422  0.000190733
1720    0.166739    0.336801    0.492102  0.000160841
1730    0.165691    0.335967    0.199971  9.62354e-05
1740    0.164814    0.335269   -0.617593  0.000113855
1750    0.163414    0.334154   0.0836331  0.000109754
1760    0.162619    0.333522    0.258683  0.000123108
1770    0.160951    0.332195   0.0247508  0.00018001
1780    0.159019    0.330656    0.550813  0.000237171
1790    0.156208    0.328419   -0.850955  0.000224593
1800    0.154527    0.327081   -0.441688  0.000185832
1810    0.152491    0.325461   -0.149273  0.000177506
1820    0.150977    0.324256     0.25874  0.000195517
1830    0.148581    0.322349   -0.383547  0.00027058
1840    0.145565    0.319948   -0.324779  0.000205265
1850    0.144476    0.319081   -0.208156  0.000175077
1860    0.142064    0.317162   -0.850955  4.76353e-05
1870    0.143523    0.318323    -1.66903  0.000175949
1880    0.138545    0.314361   -0.617707  0.000343841
1890    0.136646     0.31285    -1.14246  0.000119311
1900    0.136158    0.312461     -1.1428  7.54111e-05
1910    0.135138    0.311649     -1.4937  0.000102162
1920    0.134115    0.310835    -2.48637  8.90978e-05
1930    0.133356    0.310231    -3.30393  0.000147127
1940    0.131173    0.308493    -2.25284  0.000200813
1950     0.12934    0.307035    -3.71246  0.000210237
1960    0.126968    0.305147    -2.83664  0.000125957
1970    0.126821     0.30503    -1.49336  3.70666e-05
1980    0.126226    0.304557    -2.71973  0.000157898
1990    0.123663    0.302516    -2.42749  0.000126828
2000     0.12369    0.302538    -2.07762  3.76258e-05
2010     0.12291    0.301917    -3.01215  6.4601e-05
2020    0.122398    0.301509     -2.8371  0.000100745
2030    0.120895    0.300314    -2.89586  8.2932e-05
2040    0.120739    0.300189     -2.0201  9.67376e-05
2050    0.118961    0.298774     -2.4878  0.000223236
2060    0.116275    0.296636    -1.84443  8.36864e-05
2070    0.117287    0.297442    -1.96196  7.50612e-05
2080    0.114773    0.295441    -1.61135  0.000183745
2090    0.113612    0.294517    -2.07881  0.000116282
2100    0.112448     0.29359    -2.54611  -1.49608e-06
2110    0.113642     0.29454    -1.90348  -2.40806e-05
2120    0.112929    0.293973     -2.0791  8.95485e-05
2130    0.111851    0.293115    -1.49455  7.60779e-05
2140    0.111408    0.292762    -2.72139  9.4562e-05
2150     0.10996     0.29161    -2.66296  9.47345e-05
2160    0.109513    0.291254    -3.13048  -1.03898e-06
2170     0.10998    0.291626    -2.95526  9.06434e-05
2180      0.1077    0.289811     -2.7215  0.000122816
2190    0.107524    0.289671    -2.60453  9.11098e-05
2200    0.105878    0.288361    -2.60448  0.00020162
2210    0.103492    0.286462    -2.77913  5.01383e-05
2220    0.104875    0.287563    -1.90354  0.000147344
2230    0.100545    0.284116    -1.90325  0.000188898
2240    0.101097    0.284556    -2.95469  9.40971e-06
2250    0.100357    0.283967   -0.793898  5.56406e-05
2260   0.0999845     0.28367    -1.84574  8.8251e-05
2270   0.0985916    0.282562    -1.67069  0.000102334
2280   0.0979378    0.282041   -0.501825  2.36552e-05
2290   0.0981185    0.282185    -1.84511  2.37718e-05
2300   0.0974624    0.281663    -3.30542  0.000186837
2310   0.0943818    0.279211    -2.72104  0.00019183
2320   0.0936258    0.278609    -1.90331  2.43239e-05
2330   0.0938953    0.278824    -2.19612  4.78331e-05
2340   0.0926691    0.277848    -3.42273  3.8502e-05
2350   0.0931253    0.278211    -2.31337  2.93415e-05
2360   0.0920823    0.277381    -2.54748  0.000184266
2370   0.0894399    0.275278    -2.13787  0.000165847
2380   0.0887653    0.274741     -2.2546  0.000105198
2390    0.087336    0.273603    -1.67052  0.000114849
2400   0.0864683    0.272913    -1.14525  3.96762e-05
2410   0.0865424    0.272972    -2.43005  8.7107e-05
2420   0.0847262    0.271526    -2.89729  0.000106134
2430   0.0844198    0.271282    -2.72161  5.91286e-05
2440   0.0835436    0.270585    -2.37214  0.000253804
2450   0.0793437    0.267242    -1.96339  0.000211488
2460   0.0793139    0.267219    -2.37208  -6.36201e-05
2470   0.0806161    0.268255     -1.2629  -2.55913e-05
2480   0.0798257    0.267626    -1.32093  9.34593e-05
2490   0.0787469    0.266767    -2.25592  0.000155797
2500   0.0767098    0.265146    -3.13134  0.000141795
2510    0.075911     0.26451    -2.66484  0.00010394
2520    0.074631    0.263491    -2.66439  0.000132963
2530   0.0732517    0.262394     -2.7227  6.60781e-05
2540   0.0733094     0.26244    -2.13889  -4.42501e-05
2550   0.0741367    0.263098    -1.73065  0.000138659
2560   0.0705362    0.260232    -1.90536  0.00022553
2570   0.0696261    0.259508    -2.19721  3.80229e-05
2580   0.0697758    0.259627    -1.96373  4.78633e-05
2590   0.0686689    0.258746    -1.84711  8.17899e-05
2600     0.06814    0.258325    -1.67194  6.75105e-05
2610   0.0673187    0.257671    -1.84745  0.000150209
2620   0.0651358    0.255934    -1.73054  9.70446e-05
2630   0.0653778    0.256127    -2.72389  5.36539e-05
2640   0.0640627     0.25508    -1.78948  0.00013169
2650    0.062744     0.25403    -1.78931  8.81275e-05
2660   0.0623002    0.253677     -2.6657  2.00009e-05
2670   0.0623439    0.253712    -2.48996  0.000108182
2680   0.0601365    0.251955    -1.55572  0.000142626
2690   0.0594914    0.251442    -2.84069  1.06175e-05
2700   0.0599242    0.251786    -3.36624  9.91857e-05
2710   0.0575077    0.249863    -2.78198  7.4653e-05
2720   0.0584311    0.250598    -2.08166  -8.68812e-06
2730   0.0576815    0.250001    -2.84097  0.000109611
2740   0.0562389    0.248853    -3.07462  0.000129631
2750   0.0550889    0.247938    -2.89894  3.59869e-05
2760   0.0555192     0.24828    -3.07491  -2.82209e-05
2770   0.0556533    0.248387    -3.30838  -1.83983e-05
2780   0.0558871    0.248573    -3.25007  -1.84413e-05
2790   0.0560221     0.24868    -1.67325  3.62406e-05
2800   0.0551623    0.247996    -2.37357  -1.35597e-05
2810   0.0562933    0.248896     -2.6661  -4.83923e-05
2820   0.0561302    0.248766    -1.55703  1.35656e-06
2830   0.0562662    0.248875    -2.25791  5.64251e-05
2840   0.0550017    0.247868    -2.37448  2.14068e-05
2850    0.055838    0.248534     -2.7838  -2.85618e-05
2860   0.0555729    0.248323        -2.2  2.65509e-05
2870    0.055307    0.248111    -1.79125  3.66844e-05
2880   0.0548392    0.247739    -2.60915  -3.37645e-05
2890   0.0559823    0.248649    -2.60984  6.62487e-06
2900   0.0547067    0.247633    -2.20051  -3.64054e-06
2910   0.0560551    0.248707    -2.20103  6.73747e-05
2920   0.0533592    0.246561    -2.20034  2.16749e-05
2930   0.0556216    0.248362    -2.25962  -5.40296e-05
2940   0.0544398    0.247421    -1.79279  0.000179333
2950    0.052035    0.245507    -1.73362  8.81555e-05
2960   0.0526767    0.246018    -1.96744  -0.000130514
2970   0.0546452    0.247585    -2.08457  -3.89263e-05
2980   0.0534552    0.246637    -2.20086  5.78403e-05
2990   0.0534884    0.246664    -3.07685  -6.47424e-05
3000   0.0547501    0.247668    -2.78512  -9.0461e-05
3010   0.0552977    0.248104    -2.78534  5.80754e-05
3020   0.0535886    0.246744    -1.85007  6.6746e-06
3030   0.0551642    0.247998    -2.31748  -8.57206e-05
3040    0.055303    0.248108    -2.14271  1.7024e-05
3050   0.0548237    0.247727    -1.73396  0.000182223
3060   0.0516585    0.245207    -2.20029  0.000130859
3070   0.0522065    0.245644    -2.37551  -9.62967e-05
3080   0.0535844     0.24674    -2.55164  5.90302e-05
3090   0.0510259    0.244704     -1.7921  0.000173146
3100   0.0501215    0.243984    -2.02558  -3.0322e-06
3110   0.0510865    0.244752    -1.90884  -8.10567e-06
3120   0.0502836    0.244113    -2.31776  -1.34688e-05
3130   0.0513559    0.244967    -1.85098  -3.42617e-05
3140   0.0509689    0.244659    -1.61728  8.05918e-05
3150   0.0497441    0.243684    -2.43507  5.45744e-05
3160   0.0498774     0.24379    -1.79296  3.38562e-05
3170    0.049067    0.243145    -2.66872  1.81248e-05
3180   0.0495149    0.243501     -3.5446  4.45701e-05
3190   0.0481756    0.242435    -3.60279  0.000144677
3200   0.0466213    0.241198    -2.84343  0.000102882
3210   0.0461179    0.240798    -3.77779  0.000177232
3220   0.0430767    0.238377    -3.19341  6.64387e-05
3230   0.0447891     0.23974    -3.66162  -3.37064e-05
3240   0.0437508    0.238914    -3.31169  7.21395e-05
3250   0.0433463    0.238592     -3.1945  -2.00905e-06
3260    0.043791    0.238946    -3.72005  5.1282e-05
3270   0.0423207    0.237775    -3.01882  0.000136585
3280   0.0410593    0.236771    -2.90157  0.000147687
3290    0.039367    0.235424    -2.78449  6.78895e-05
3300   0.0397015    0.235691     -2.1426  2.54003e-05
3310    0.038859     0.23502    -2.78477  -1.21534e-05
3320   0.0399446    0.235884     -2.0848  0.000143726
3330   0.0359844    0.232732    -2.02575  0.000149156
3340   0.0369615     0.23351    -2.61018  7.45527e-05
3350   0.0344934    0.231546    -2.37636  0.000155448
3360   0.0338525    0.231035    -1.79256  3.17736e-05
3370   0.0338579     0.23104    -1.90975  0.000140156
3380   0.0310494    0.228804    -1.79279  0.000145779
3390   0.0309423    0.228719    -2.84445  4.87264e-05
3400   0.0300749    0.228029    -1.67719  8.14379e-05
3410   0.0293136    0.227423    -1.91038  2.72352e-05
3420   0.0295302    0.227595    -1.96966  0.000131001
3430   0.0266936    0.225338    -1.44326  0.000191246
3440   0.0257052    0.224551    -2.66952  8.80486e-05
3450   0.0249326    0.223936    -2.96228  7.73836e-05
3460   0.0241576    0.223319    -1.96932  6.11543e-05
3470   0.0237095    0.222963    -2.55375  5.03721e-05
3480   0.0231501    0.222517    -2.43684  8.35413e-05
3490   0.0220387    0.221633     -2.6702  0.000171944
3500   0.0197113     0.21978    -2.96233  7.85407e-05
3510   0.0204679    0.220383     -2.7292  -3.70812e-05
3520   0.0204529    0.220371    -3.02116  2.91879e-05
3530   0.0198841    0.219918     -3.2548  0.000129062
3540   0.0178716    0.218316    -2.14522  0.000146005
3550    0.016964    0.217594    -2.67077  8.53555e-05
3560   0.0161645    0.216957    -2.37893  8.00665e-05
3570   0.0153627    0.216319    -2.78717  -2.57149e-05
3580   0.0166788    0.217367    -2.49584  1.34922e-05
3590   0.0150928    0.216104    -3.43037  0.000119662
3600   0.0142856    0.215462    -2.32084  0.000108884
3610   0.0129151    0.214371    -2.55432  8.67232e-05
3620   0.0125511    0.214082    -2.72937  2.52104e-05
3630   0.0124109     0.21397    -2.26236  5.91051e-05
3640    0.011369    0.213141    -1.79501  0.000217192
3650   0.0080671    0.210513    -1.91186  0.00014989
3660  0.00837123    0.210755    -1.38683  4.87723e-05
3670  0.00709166    0.209736    -0.86105  0.000122491
3680  0.00592141    0.208805    -1.15312  6.61166e-05
3690  0.00576933    0.208684   -0.452638  7.20917e-05
3700  0.00447957    0.207657    -1.32834  0.000146273
3710  0.00284387    0.206355    -1.03667  7.25486e-05
