Time   C(t)   
ps   
0           1           1  2.54237e-09   0.0488401
10      0.5132    0.765577   -0.239946   0.0253001
20    0.493998     0.75633   -0.425673  0.00176007
30    0.477999    0.748626    0.983333  0.00125843
40    0.468829     0.74421    -1.28821  0.00126759
50    0.452647    0.736417    -1.34581  0.00113853
60    0.446059    0.733245   -0.674566  0.000396666
70    0.444714    0.732597    0.793178  0.00076727
80    0.430713    0.725855     1.77421  0.000692958
90    0.430854    0.725923    0.974775  0.000682516
100    0.417063    0.719281     2.69237  0.00112295
110    0.408395    0.715108    0.854489  0.000257593
120    0.411911      0.7168     1.52394  9.50649e-05
130    0.406494    0.714192     1.27941  0.000529642
140    0.401318    0.711699      2.4424  0.000486581
150    0.396762    0.709506     4.21777  0.000487548
160    0.391567    0.707004     3.42277  0.000836213
170    0.380038    0.701452      4.5272  0.000755338
180     0.37646    0.699729     4.64779  0.000592582
190    0.368187    0.695745     5.26161  0.000301905
200    0.370422    0.696821     4.40021  0.000214198
210    0.363903    0.693682     6.05536  0.000519177
220    0.360039    0.691821     4.34022  0.000126015
230    0.361382    0.692468     5.37843  0.000183861
240    0.356362     0.69005     5.56158  0.00064916
250    0.348399    0.686216     6.11571  0.000803407
260    0.340293    0.682312     7.03585  0.00027502
270    0.342899    0.683567     5.86903  -9.46254e-05
280    0.342186    0.683224     6.29695  0.000596103
290    0.330977    0.677826     5.07307  0.000449486
300    0.333196    0.678895     6.78713  -0.000254245
310    0.336062    0.680274     5.25317  8.54418e-05
320    0.331487    0.678072     3.04755  0.000303693
330    0.329988     0.67735     5.31382  0.000227311
340    0.326941    0.675882     5.19007  0.000131108
350    0.327366    0.676087     4.69683  0.000730981
360    0.312322    0.668842     4.76329  0.000680102
370    0.313763    0.669537     8.07047  -0.00011206
380    0.314563    0.669922     4.33076  -0.000144668
390    0.316657     0.67093     4.20616  0.000398782
400    0.306587    0.666081     4.02528  0.000424893
410    0.308159    0.666838     5.06475  -0.000118451
420    0.308956    0.667222     4.75658  0.000179955
430     0.30456    0.665105     5.00177  0.000407539
440    0.300805    0.663297      5.0041  9.60916e-05
450    0.302638    0.664179      4.3874  9.01133e-05
460    0.299003    0.662429     4.75712  1.1766e-05
470    0.302403    0.664066     4.87848  0.000149204
480    0.296019    0.660992     5.49261  0.000403832
490    0.294326    0.660176     5.85796  -1.36584e-05
500    0.296292    0.661123     2.85362  -0.000118266
510    0.296691    0.661315     4.07774  0.00049095
520    0.286473    0.656395     1.87534  0.000333968
530    0.290012    0.658099     3.15946  0.000381374
540    0.278846    0.652722     3.65281  0.000598393
550    0.278044    0.652336     3.16125  -0.000156754
560    0.281981    0.654231     3.15958  6.71968e-05
570      0.2767    0.651689     2.36397  0.000403263
580    0.273915    0.650347     2.73166  0.000153314
590    0.273634    0.650212     3.34309  0.000107498
600    0.271766    0.649312     1.50431  0.000352533
610    0.266583    0.646817     1.50574  0.000253719
620    0.266691    0.646869     2.24117  7.54774e-05
630    0.265074     0.64609    0.584829  -5.71966e-05
640    0.267835    0.647419    0.828216  0.000255236
650    0.259969    0.643631     2.11694  9.07928e-06
660    0.267653    0.647332     1.56233  -0.000189888
670    0.263767     0.64546      3.1561  0.000415795
680    0.259338    0.643327     2.54461  0.000123006
690    0.261307    0.644276     2.54366  3.00467e-05
700    0.258737    0.643038     3.89117  0.000417814
710     0.25295    0.640252     2.11586  5.6985e-05
720    0.257597    0.642489     2.05263  -0.000156811
730    0.256087    0.641762     3.33908  0.000218295
740    0.253231    0.640387     2.78842  0.00042019
750    0.247683    0.637715     1.56388  0.000394018
760    0.245351    0.636592     2.11514  0.000105623
770     0.24557    0.636698     3.64569  -0.000183786
780    0.249026    0.638362     3.82687  -0.00015707
790    0.248712     0.63821     3.70455  0.000112529
800    0.246776    0.637278     1.74399  0.000288506
810    0.242942    0.635432      1.9909  0.00047181
820     0.23734    0.632734    0.948923  0.00024235
830    0.238095    0.633098   0.0286058  -0.000218053
840    0.241701    0.634834   -0.649222  0.000229806
850    0.233499    0.630884    0.640993  0.000250085
860    0.236699    0.632426   -0.525644  -6.86206e-05
870    0.234871    0.631545    0.699133  9.4422e-05
880    0.234811    0.631516   -0.220048  0.000149333
890    0.231884    0.630107     3.21197  -3.48553e-05
900    0.235508    0.631852   -0.711252  -5.51037e-05
910    0.232986    0.630638   -0.773219  0.000341351
920    0.228681    0.628564    0.820676  0.000492739
930    0.223132    0.625892   -0.771963  0.000274309
940    0.223194    0.625922     0.20757  -0.000150491
950    0.226141    0.627341     1.30901  7.61583e-05
960    0.221671    0.625189     2.53558  0.000192927
970    0.222283    0.625483      1.4933  -0.000157713
980    0.224826    0.626708     2.04366  0.000297188
990    0.216339    0.622621     1.00449  0.000283468
1000    0.219156    0.623978     1.49252  -0.000233661
1010    0.221012    0.624871     1.00192  0.000104787
1020     0.21706    0.622968      1.8605  0.000132407
1030    0.218364    0.623596     1.36846  -0.00017904
1040    0.220641    0.624693   -0.715978  0.000202452
1050    0.214315    0.621646     2.16502   0.0004387
1060    0.211867    0.620468   -0.714542  5.02773e-05
1070     0.21331    0.621162     0.26499  -8.17589e-05
1080    0.213502    0.621255    0.814871  0.000141152
1090    0.210487    0.619803   0.0809394  0.000169249
1100    0.210117    0.619625    0.754099  -6.79024e-05
1110    0.211845    0.620457     1.24291  3.00273e-05
1120    0.209517    0.619336     1.24351  0.000106953
1130    0.209706    0.619427    0.814811  -6.09957e-05
1140    0.210737    0.619923  -0.0445557  0.000282917
1150    0.204047    0.616702    0.936414  0.000472929
1160    0.201278    0.615368      2.8368  0.000403851
1170     0.19597    0.612812     2.10251  0.000263713
1180    0.196004    0.612828   -0.962417  3.1884e-05
1190    0.195332    0.612505     1.36583  -1.0471e-05
1200    0.196213    0.612929   -0.290156  -9.52318e-05
1210    0.197237    0.613422    0.198713  0.000131046
1220    0.193592    0.611667     0.38402  0.000187753
1230    0.193482    0.611614     2.22089  1.10589e-05
1240    0.193371    0.611561     2.34387  0.00023834
1250    0.188715    0.609319    0.567474  0.000267031
1260    0.188031    0.608989   -0.413914  -0.000244597
1270    0.193607    0.611674   -0.232497  1.8882e-05
1280    0.187653    0.608807  -0.0467692  0.000296465
1290    0.187678    0.608819    0.504788  -0.000131034
1300    0.190274    0.610069     1.05413  5.47208e-05
1310    0.186584    0.608292     2.03486  0.000312208
1320     0.18403    0.607062     1.54557  0.000105152
1330     0.18448    0.607279     2.76969  -1.64434e-05
1340    0.184358     0.60722    0.135547  0.000127184
1350    0.181937    0.606054    0.134709  9.13955e-05
1360    0.182531     0.60634   0.0745963  -2.34365e-05
1370    0.182406     0.60628    0.502931  0.000192704
1380    0.178676    0.604484   -0.599701  0.00032284
1390    0.175949    0.603171     0.38073  -2.31214e-05
1400    0.179139    0.604707    0.685728  7.8436e-05
1410     0.17438    0.602415    -1.27334  4.19408e-05
1420      0.1783    0.604303    -1.64449  -0.000211215
1430    0.178604     0.60445    -1.21502  0.000238118
1440    0.173538     0.60201    0.255595  0.000143888
1450    0.175727    0.603064    -0.35799  1.3677e-05
1460    0.173264    0.601878     2.03205  0.000516065
1470    0.165405    0.598093     1.42038  0.000261727
1480     0.16803    0.599357     1.47953  -0.00020434
1490    0.169492    0.600061     1.78627  0.00012404
1500    0.165549    0.598163   -0.112807  0.000153288
1510    0.166426    0.598585     1.35745  -0.000227083
1520     0.17009     0.60035    0.865409  1.46367e-05
1530    0.166134    0.598444     2.33585  0.000271295
1540    0.164665    0.597737   -0.114243  -6.61887e-05
1550    0.167457    0.599082     3.43752  -4.39957e-05
1560    0.165544     0.59816     1.53767  0.000235722
1570    0.162743    0.596811      2.8871  0.000214074
1580    0.161263    0.596099     2.88698  0.000125996
1590    0.160223    0.595598      2.1515  1.53787e-05
1600    0.160955    0.595951     2.94728  0.000111781
1610    0.157987    0.594521     1.53749  0.00021564
1620    0.156643    0.593874  0.00574458  0.000171737
1630    0.154553    0.592867    -1.09707  8.28855e-05
1640    0.154985    0.593075   -0.730221  0.000135317
1650    0.151846    0.591564     -2.4459  0.000195062
1660    0.151084    0.591197    0.740336  -5.72503e-06
1670    0.151961    0.591619   -0.363495  -8.03418e-05
1680    0.152691    0.591971   -0.609275  0.000218536
1690     0.14759    0.589514    -1.71233  0.000173786
1700    0.149215    0.590297    -1.89602  -0.000155157
1710    0.150693    0.591009    -1.59126  0.000422299
1720    0.140769     0.58623    -2.32232  0.000197215
1730    0.146749    0.589109    -3.36777  -1.19813e-05
1740    0.141008    0.586345    -1.95595  0.000115327
1750    0.144442    0.587999     -1.7746  -0.000102516
1760    0.143059    0.587332    -1.89698  3.28437e-05
1770    0.143785    0.587682     -2.2649  -1.23158e-05
1780    0.143305    0.587451    -2.69467  0.000320581
1790    0.137374    0.584595    -1.16131  0.000139172
1800    0.140522     0.58611    -3.00147  7.93584e-05
1810    0.135787     0.58383    -2.14168  0.000170246
1820    0.137117    0.584471    -2.51104  0.000247116
1830    0.130844     0.58145    -2.63247  0.000239621
1840    0.132324    0.582163     -4.5316  -3.38033e-05
1850     0.13152    0.581776    -1.34818  0.000317134
1860    0.125982    0.579109    -1.71424  -0.000133317
1870    0.134187     0.58306    -2.14737  0.000165635
1880    0.122669    0.577513    -3.61451  0.000410008
1890    0.125987    0.579111     -2.2067  -4.0672e-05
1900    0.123482    0.577905    -1.28662  -7.18199e-05
1910    0.127423    0.579803     -2.3313  5.14407e-05
1920    0.122454     0.57741    -1.71646  0.000212669
1930     0.12317    0.577754    -1.47235  0.000144172
1940     0.11957    0.576021    -1.34943   9.025e-05
1950    0.121365    0.576885    -1.16616  0.000330385
1960    0.112962    0.572839    -2.02121  0.000446615
1970    0.112432    0.572584    -2.38848  -0.000280027
1980    0.118563    0.575536    0.120765   -0.000226
1990    0.116952     0.57476   -0.982646  6.03091e-05
2000    0.117357    0.574955    -2.02391  3.72622e-05
2010    0.116207    0.574402    -3.12762  -9.45032e-06
2020    0.117546    0.575046    -3.06667  6.86269e-05
2030    0.114834    0.573741    -1.47295  0.000341747
2040    0.110711    0.571755    -2.02343  0.000319102
2050    0.108452    0.570667    -2.26807  -0.000102566
2060    0.112762    0.572743    -4.04638  -0.000470701
2070    0.117866    0.575201    -1.59797  -1.1079e-06
2080    0.112784    0.572753    -2.94596  0.000367461
2090    0.110517    0.571662    -2.57672  0.000313508
2100    0.106514    0.569734    -1.35105  0.000203924
2110    0.106439    0.569698    0.058558  -0.000173804
2120     0.10999    0.571408   -0.433303  -0.000189795
2130    0.110235    0.571526    -1.59767  0.000157348
2140    0.106843    0.569892    -0.12675  0.000276227
2150     0.10471    0.568865    -1.90428  0.000189839
2160    0.103046    0.568064    -1.10778  0.00017451
2170     0.10122    0.567184   -0.740037  7.95621e-05
2180    0.101455    0.567298    -1.78148  4.01273e-05
2190    0.100417    0.566798    -1.29153  -3.94963e-05
2200    0.102245    0.567678    -1.29219  8.82141e-05
2210   0.0986531    0.565948   -0.985638  9.6086e-05
2220    0.100323    0.566753    -1.17088  0.000176607
2230    0.095121    0.564247    -2.76275  8.47206e-06
2240    0.100154    0.566671   -0.436235  3.32274e-05
2250   0.0944564    0.563927   -0.986236  0.000225276
2260   0.0956485    0.564501   -0.742669  1.22525e-06
2270   0.0944319    0.563916   -0.314332  8.96309e-05
2280   0.0938559    0.563638    -0.25368  0.00025107
2290   0.0894105    0.561497   -0.742968  4.16566e-05
2300   0.0930227    0.563237    -1.11353  -3.84875e-05
2310   0.0901802    0.561868    0.296559  7.42458e-05
2320   0.0915378    0.562522     -1.5427  -2.25086e-05
2330   0.0906304    0.562085    0.723579  0.000269296
2340   0.0861519    0.559928    -1.35889  0.000245426
2350   0.0857219    0.559721    -1.85021  0.000189406
2360   0.0823638    0.558104    -3.38136  0.000262971
2370   0.0804625    0.557188    -3.19874  0.000198552
2380   0.0783927    0.556192    -3.19814  0.000256231
2390   0.0753378    0.554721    -3.19755  0.000175042
2400   0.0748919    0.554506    -1.72591  3.77521e-06
2410   0.0752623    0.554684   -0.563104  1.20621e-05
2420   0.0746507     0.55439    -2.70796  -0.000176781
2430    0.078798    0.556387    -1.48372  -0.000111187
2440   0.0768744    0.555461    -1.30045  0.000406599
2450    0.070666    0.552471    -2.89375  0.000423859
2460   0.0683972    0.551378    -1.66676  2.09361e-05
2470   0.0702473    0.552269    -1.85248  -8.6141e-05
2480     0.07012    0.552208    -3.93567  -0.000119634
2490   0.0726399    0.553421    -2.52786  -4.5196e-05
2500   0.0710239    0.552643    -2.83477  0.000294546
2510    0.066749    0.550585     -2.9562  0.000511144
2520   0.0608011     0.54772    -2.21909  5.4894e-05
2530   0.0656511    0.550056    -2.95584  -0.000235771
2540   0.0655165    0.549991    -2.71221  -0.000103259
2550   0.0677163     0.55105    -2.22226  -6.99945e-05
2560   0.0669164    0.550665    -2.58947  0.000305927
2570   0.0615978    0.548104    -3.14108  -0.000179219
2580   0.0705008    0.552391    -1.97929  0.000156667
2590   0.0584644    0.546595    -1.97552  0.000214433
2600   0.0662121    0.550326    -3.44973  0.000266808
2610   0.0531283    0.544025    -2.40428  0.000409272
2620   0.0580266    0.546384     -2.0994  -0.000102708
2630   0.0551824    0.545015    -1.48689  0.000234175
2640   0.0533432    0.544129    -1.85458  0.000125006
2650   0.0526823    0.543811    -2.10018  0.000142353
2660   0.0504961    0.542758   -0.507001  7.48217e-05
2670   0.0511859     0.54309    -1.79536  2.42969e-05
2680   0.0500102    0.542524    -1.73387  -3.52757e-05
2690   0.0518914     0.54343    -1.73423  -3.51766e-05
2700   0.0507137    0.542863    -2.34829  0.000228754
2710   0.0473163    0.541227    -2.65425  0.000288994
2720   0.0449338    0.540079     -2.2871  0.000118898
2730   0.0449384    0.540082    -3.20712  0.000196405
2740   0.0410057    0.538188    -2.90009  8.15056e-06
2750   0.0447754    0.540003    -2.10545  0.000180358
2760   0.0373985    0.536451   -0.755775  0.000618389
2770   0.0324076    0.534047    -3.26735  8.6673e-05
2780   0.0356651    0.535616    0.345661  -0.000446844
2790   0.0413445    0.538351     -1.7398  0.000173476
2800   0.0321956    0.533945   -0.878754  0.000397613
2810   0.0333922    0.534521   -0.389288  0.00022634
2820   0.0276688    0.531765    -1.06329  0.00018318
2830   0.0297286    0.532757    -1.61508  8.00882e-05
2840    0.026067    0.530994    -1.30829  0.000288475
2850   0.0239591    0.529979    -4.37238  -0.000258862
2860   0.0312442    0.533487    -2.22896  -6.72095e-05
2870   0.0253033    0.530626    -4.98555  -5.95974e-05
2880   0.0324362    0.534061    -2.84333  -3.26332e-05
2890    0.025956     0.53094    -3.02492  0.00048267
2900   0.0227828    0.529412    -2.71861  -0.000278201
2910     0.03152     0.53362    -3.58067  -0.00037469
2920   0.0302766    0.533021    -1.92636  0.000133293
2930   0.0288542    0.532336    -1.00586  0.00060892
2940   0.0180982    0.527156    -1.37115  7.23461e-05
2950   0.0274072    0.531639    -1.92606  -0.000155504
2960   0.0212082    0.528654    -2.96589  0.000143492
2970   0.0245374    0.530257    -2.96625  -0.000182932
2980   0.0248669    0.530416    -4.13043  -0.000307765
2990   0.0306927    0.533221    -3.33657  -0.000148473
3000   0.0278364    0.531846    -3.51894  0.000223834
3010    0.026216    0.531066     -3.1515  -0.000193837
3020   0.0317131    0.533713    -1.86673  -0.000140403
3030   0.0290241    0.532418    -2.90751  0.000242505
3040    0.026863    0.531377    -3.02989  1.83806e-06
3050   0.0289873      0.5324    -3.03031  -0.00024852
3060   0.0318334    0.533771    -2.47917  0.000100499
3070   0.0269774    0.531432    -2.11101  4.63226e-05
3080   0.0309069    0.533325    -2.23453  6.51053e-05
3090   0.0256753    0.530805    -2.04994  0.000181701
3100   0.0272729    0.531575    -1.43821  2.34554e-06
3110   0.0256283    0.530783    -2.05102  -9.72247e-05
3120   0.0292174    0.532511    -2.29787  4.75726e-05
3130   0.0246769    0.530324    -1.50012  0.000355102
3140   0.0221154    0.529091    -3.39943  -8.81953e-05
3150   0.0264408    0.531174    -2.97205  -0.000151543
3160   0.0251462     0.53055    -3.89189  0.000120519
3170   0.0240304    0.530013    -3.83064   0.0005491
3180   0.0141642    0.525262    -2.48013  0.000185117
3190   0.0203281     0.52823    -2.23662  -0.000242641
3200   0.0190171    0.527599    -1.99102  -0.000161526
3210   0.0235586    0.529786    -1.19662  -6.07732e-05
3220   0.0202325    0.528184     -1.9918  0.000397328
3230    0.015612    0.525959     -2.1137  0.000122691
3240   0.0177787    0.527003    -1.56328  -0.000207836
3250   0.0197687    0.527961    -2.11586  -0.000199246
3260   0.0217636    0.528921    -2.91355  5.86877e-05
3270    0.018595    0.527396    -1.56418  6.77045e-05
3280   0.0204095    0.528269      -3.526  5.90341e-05
3290   0.0174143    0.526827   -0.890843  5.88424e-05
3300   0.0192327    0.527703    -2.42397  -2.41979e-05
3310   0.0178983     0.52706    -2.91367  8.70938e-05
3320   0.0174908    0.526864    -2.48522  0.000134011
3330   0.0152181    0.525769    -1.62747  0.00011563
3340   0.0151782     0.52575   -0.954251  0.000181527
3350   0.0115875    0.524021   -0.463284  0.000509331
3360  0.00499157    0.520845    -2.42175  -1.4166e-05
3370   0.0118708    0.524158   -0.524955  3.37409e-05
3380  0.00431675     0.52052    -1.32044  0.000267724
3390  0.00651635    0.521579     -1.0149  -2.25703e-05
3400  0.00476816    0.520737    -2.11735  -0.000239776
3410   0.0113119    0.523888    -2.42553  -0.000117121
3420  0.00711059    0.521865   -0.586564  0.000335664
3430  0.00459859    0.520656   -0.463643  0.00034629
3440  0.000184795     0.51853   -0.462329  -9.86605e-05
3450   0.0065718    0.521606   0.0254659  -4.11178e-05
3460  0.00100715    0.518926    -2.85308  0.000347967
3470  -0.000387537    0.518254    0.272382  -6.99882e-05
3480  0.00240692      0.5196   0.0869559  -0.000432573
3490  0.00826392    0.522421  -0.0990741  0.000101662
3500  0.000373675    0.518621    -2.18034  0.000177499
3510  0.00471395    0.520711    -2.36691  -7.98901e-05
3520  0.00197148     0.51939    -2.30356  0.000140205
3530  0.00190984    0.519361   -0.771814  6.38923e-05
3540  0.000693631    0.518775    -1.38534  0.000179597
3550  -0.00168209    0.517631    -2.42618  0.000344074
3560  -0.00618785    0.515461    -3.46732  7.44193e-05
3570  -0.00317048    0.516914    -2.79584  4.6205e-05
3580  -0.00711195    0.515016    -2.06005  0.000162113
3590  -0.00641275    0.515353     -3.3468  -2.1481e-05
3600  -0.00668233    0.515223    -3.16346  -2.16607e-06
3610  -0.00636943    0.515374    -2.85733  3.68353e-05
3620  -0.00741903    0.514868    -5.36897  -2.16914e-05
3630  -0.0059356    0.515583    -3.90003  3.70518e-05
3640  -0.00816007    0.514511    -5.55404  -0.000149031
3650  -0.00295499    0.517018    -4.26855  -3.13025e-05
3660  -0.00753402    0.514813     -4.5123  0.000399711
3670  -0.0109492    0.513168    -2.67364  0.000273263
3680  -0.0129993    0.512181    -3.34716  -4.08517e-05
3690  -0.0101322    0.513562    -4.39051  -0.000208269
3700  -0.0088339    0.514187    -3.71712  -0.000228828
3710  -0.00555561    0.515766    -4.02444  -0.000189808
3720  -0.00503774    0.516015    -4.57594  -0.000101445
3730  -0.0035267    0.516743    -3.04515  -6.19986e-05
3740  -0.00379777    0.516612     -3.9032  0.000275683
3750  -0.00904035    0.514088     -3.9023  0.000345863
3760   -0.010715    0.513281    -2.55467  0.000157788
3770  -0.0121961    0.512568    -1.94168  3.84381e-05
3780  -0.0114838    0.512911    -1.39085  -0.000161389
3790  -0.00896832    0.514122    -1.81852  -0.000131696
3800  -0.00884987    0.514179    -1.94258  -1.18699e-05
3810  -0.00873092    0.514237    -2.67819  3.83638e-05
3820  -0.00961714     0.51381    -1.94216  -0.000152942
3830  -0.00567208     0.51571    -2.12741  -0.000193385
3840  -0.00574944    0.515672    -4.27196  0.000199716
3850  -0.0096664    0.513786     -4.5778  0.000139308
3860  -0.0085356    0.514331    -5.06828  -0.000174076
3870  -0.00618488    0.515463    -4.70078  0.000119925
3880  -0.0109341    0.513176    -4.08761  -9.38271e-05
3890  -0.00430834    0.516366    -3.78351  -0.000307121
3900  -0.00479168    0.516134     -4.0287  2.79977e-05
3910  -0.00486829    0.516097    -4.39644  0.000191615
3920  -0.00862398    0.514288    -4.27214  0.000273863
3930  -0.0103456    0.513459    -5.00823  0.000121132
3940  -0.0110466    0.513121    -4.70138  -0.000391938
3950  -0.0025068    0.517234    -5.31676  -0.000515898
3960  -0.00072866     0.51809    -4.70509  0.000491675
3970  -0.0123403    0.512498    -4.76346  0.000419935
3980  -0.00912737    0.514046    -4.33525  -0.000290808
3990  -0.00652415    0.515299    -3.90661  -0.000260743
4000  -0.00391251    0.516557    -4.15239  -0.000126776
4010  -0.00398863     0.51652    -4.70419  -0.000179392
4020  -0.00032466    0.518285    -1.94797  -0.000231693
4030  0.000645236    0.518752    -3.23525  0.000163456
4040  -0.00359379     0.51671    -2.86613  0.000184455
4050  -0.00304386    0.516975    -4.94985  -0.000201554
4060  0.000437295    0.518652    -2.99001  -3.43474e-05
4070  -0.00235691    0.517306    -4.03055  0.000174936
4080  -0.00306143    0.516967    -2.98911  0.000207235
4090  -0.00650162     0.51531    -2.98851  0.000355164
4100  -0.0101647    0.513546    -2.92732  3.98492e-05
4110  -0.0072986    0.514926     -3.6015  -0.000308186
4120  -0.00400101    0.516514    -3.66322  -0.000182152
4130  -0.00365555    0.516681    -5.19563  0.000230499
4140  -0.00861098    0.514294    -4.70461  0.000230833
4150  -0.00827221    0.514457    -5.37872  0.000221438
4160  -0.0130398    0.512162    -6.05171  -0.000172579
4170  -0.00482064     0.51612    -5.44147  -0.000161408
4180  -0.00981159    0.513716    -4.27639  0.000307486
4190  -0.0109704    0.513158    -5.44039  -1.76998e-06
4200  -0.00977619    0.513733    -5.99309  0.000202291
4210  -0.0150162     0.51121    -4.27633  0.000148665
4220  -0.0127495    0.512301    -4.76813  -3.32149e-05
4230  -0.0143519     0.51153    -4.70724  6.34158e-05
4240  -0.0140178    0.511691    -3.78836  0.000398795
4250  -0.0223278    0.507689    -4.52151  0.000280367
4260  -0.0196252     0.50899    -5.19707  0.000108804
4270  -0.0245039    0.506641    -5.25772  0.000304058
4280  -0.0257063    0.506062     -4.3386  0.000196616
4290  -0.0284362    0.504747    -5.07349  0.000142656
4300  -0.0285594    0.504688     -5.3807  -0.000118687
4310  -0.0260624     0.50589    -4.46146  3.42793e-05
4320   -0.029245    0.504358    -4.76831  2.29354e-05
4330  -0.0265211     0.50567     -4.5848  0.000166254
4340  -0.0325701    0.502757    -4.88932  -0.000207842
4350  -0.0223643    0.507671    -5.13671  -0.00028426
4360  -0.0268849    0.505494    -4.40188  0.000165913
4370  -0.0256826    0.506073    -5.87262  -9.88953e-06
4380  -0.0266871     0.50559    -5.01445  0.000322166
4390  -0.0321259    0.502971    -3.35829  0.000322921
4400  -0.0331455    0.502479    -5.74778  -0.000431385
4410  -0.0234982    0.507125    -5.56655  -0.000476507
4420  -0.0236154    0.507069    -6.66996   4.519e-05
4430   -0.024402     0.50669    -6.05685  7.88319e-05
4440   -0.025192     0.50631     -5.7506  0.000179887
4450  -0.0279997    0.504957    -6.91454  0.000101823
4460  -0.0272285    0.505329    -5.01547  -0.000167139
4470   -0.024657    0.506567    -6.54793  -0.000302659
4480  -0.0211753    0.508244    -7.71302  8.0457e-07
4490  -0.0246731    0.506559    -8.14183  0.000553748
4500  -0.0322503    0.502911    -7.65075  0.000125291
4510  -0.0271789    0.505353    -5.99728  -0.000451374
4520  -0.0232228    0.507258    -7.28462  0.000137569
4530  -0.0299302    0.504028    -7.10021  0.000387457
4540  -0.0309719    0.503526    -7.95742  0.00017277
4550  -0.0333857    0.502364    -7.95742  -0.000294991
4560  -0.0250721    0.506367    -8.08321  8.25265e-05
4570  -0.0350362    0.501569    -8.57136  0.000562622
4580  -0.0363245    0.500949    -8.32654  -0.000353314
4590  -0.0279699    0.504972     -8.3281  -0.000204147
4600  -0.0322416    0.502915    -9.00221  0.000497133
4610  -0.0379126    0.500184    -9.18543  0.000441107
4620  -0.0410637    0.498666    -8.63327  3.80019e-05
4630  -0.0386726    0.499818    -8.75703  7.34447e-05
4640  -0.0425326    0.497959    -9.30829  -0.000112712
4650  -0.0364184    0.500903    -8.14524  -8.8935e-05
4660  -0.0407539    0.498816    -8.81816  0.000224536
4670  -0.0409091    0.498741     -9.6161  8.5621e-05
4680  -0.0424664    0.497991    -7.77732  0.000261325
4690  -0.0461356    0.496224    -8.87941  0.000273829
4700  -0.0479429    0.495354    -7.40844  -0.000347503
4710  -0.0391855    0.499571    -7.04321  -0.000241883
4720  -0.0431053    0.497683    -7.34844  -3.17635e-05
4730  -0.0385503    0.499877    -7.90168  -0.000314622
4740  -0.0368128    0.500713    -8.57657  0.000204676
4750  -0.0426438    0.497906    -9.80045  6.24502e-05
4760  -0.0380618    0.500112    -9.55634  0.000111202
4770  -0.0448678    0.496835    -9.61658  0.000384323
4780  -0.0457483    0.496411    -9.61598  -0.000233794
4790  -0.0401919    0.499086    -9.61789  -0.000449174
4800  -0.0367648    0.500737    -9.61849  2.7775e-05
4810  -0.0407474    0.498819    -10.4148  0.000387036
4820  -0.0445055    0.497009    -9.37205  -8.06693e-06
4830  -0.0405861    0.498896    -8.88312  -0.000115717
4840  -0.0421912    0.498123    -9.80266  -8.05059e-05
4850   -0.038976    0.499672    -9.00622  -0.000370506
4860  -0.0347811    0.501692    -9.19207  -6.90259e-05
4870  -0.0375955    0.500337     -10.172  0.000318376
4880  -0.0411486    0.498626    -9.68118  3.9877e-05
4890   -0.038393    0.499953    -8.94611  -0.000105561
4900  -0.0390374    0.499642    -8.70045  0.000369773
4910  -0.0457885    0.496391    -8.63854  -0.000204237
4920  -0.0349526    0.501609    -10.1113  -0.000227816
4930  -0.0412321    0.498585    -10.0489  7.65668e-05
4940   -0.036484    0.500872     -9.3772  -8.16602e-06
4950  -0.0410688    0.498664    -9.00838  7.72042e-05
4960  -0.0380281    0.500128    -9.43767  -0.000131764
4970  -0.0384335    0.499933    -7.78342  1.59081e-05
4980  -0.0383462    0.499975    -9.68321  0.00012767
4990  -0.0409869    0.498703     -10.357  0.000239432
