Time   Number   
ps   
0          18          25
10          20          26
20          17          24
30          25          20
40          17          26
50          17          23
60          16          26
70          17          28
80          13          30
90          24          22
100          17          23
110          17          23
120          19          19
130          17          23
140          19          26
150          14          24
160          21          17
170          16          25
180          18          24
190          19          21
200          17          25
210          19          24
220          17          22
230          17          23
240          21          20
250          16          27
260          18          22
270          17          24
280          18          23
290          18          23
300          19          22
310          19          20
320          16          28
330          20          19
340          13          28
350          13          26
360          18          23
370          18          23
380          15          26
390          14          26
400          15          22
410          16          19
420          17          24
430          16          25
440          18          22
450          14          27
460          17          27
470          18          19
480          16          23
490          22          17
500          17          23
510          19          22
520          16          22
530          19          15
540          16          20
550          16          22
560          16          17
570          19          15
580          20          15
590          13          19
600          18          19
610          17          18
620          20          16
630          15          25
640          17          20
650          15          20
660          12          20
670          17          16
680          16          22
690          15          19
700          11          21
710          15          21
720          17          18
730          15          20
740          17          16
750          19          13
760          16          20
770          15          22
780          18          18
790          16          18
800          15          20
810          17          20
820          20          15
830          19          18
840          13          17
850          14          22
860          17          20
870          19          16
880          15          16
890          13          20
900          16          17
910          11          25
920          18          19
930          18          19
940          15          23
950          18          21
960          16          22
970          14          19
980          17          22
990          20          20
1000          17          26
1010          17          19
1020          19          17
1030          19          18
1040          18          23
1050          14          24
1060          17          22
1070          15          24
1080          18          24
1090          15          25
1100          13          24
1110          17          20
1120          17          22
1130          18          23
1140          15          24
1150          14          26
1160          18          25
1170          20          18
1180          17          22
1190          19          21
1200          18          22
1210          18          22
1220          18          20
1230          22          16
1240          15          23
1250          21          15
1260          19          19
1270          21          17
1280          15          24
1290          15          23
1300          21          17
1310          19          18
1320          17          24
1330          17          17
1340          19          20
1350          17          22
1360          17          17
1370          20          19
1380          17          21
1390          16          18
1400          15          22
1410          21          19
1420          14          22
1430          17          21
1440          20          22
1450          19          17
1460          19          18
1470          16          27
1480          22          18
1490          18          20
1500          17          22
1510          21          17
1520          20          18
1530          20          20
1540          14          23
1550          15          25
1560          18          19
1570          16          24
1580          18          22
1590          16          20
1600          20          17
1610          17          16
1620          18          15
1630          16          20
1640          14          20
1650          15          21
1660          17          16
1670          14          20
1680          14          22
1690          15          22
1700          18          17
1710          13          24
1720          17          23
1730          16          24
1740          16          21
1750          15          24
1760          19          17
1770          18          16
1780          17          21
1790          14          25
1800          14          21
1810          16          22
1820          20          16
1830          19          20
1840          17          20
1850          18          19
1860          19          17
1870          19          17
1880          17          19
1890          19          19
1900          18          19
1910          20          17
1920          17          20
1930          19          16
1940          22          15
1950          18          18
1960          16          19
1970          16          19
1980          17          20
1990          17          18
2000          19          20
2010          18          21
2020          21          20
2030          15          20
2040          20          16
2050          16          18
2060          16          20
2070          16          19
2080          15          24
2090          17          19
2100          14          20
2110          17          16
2120          17          19
2130          17          18
2140          18          18
2150          18          17
2160          16          22
2170          17          20
2180          17          19
2190          16          19
2200          21          17
2210          15          25
2220          20          16
2230          18          17
2240          19          18
2250          18          20
2260          21          20
2270          18          21
2280          17          21
2290          19          16
2300          14          26
2310          19          17
2320          18          18
2330          19          18
2340          17          19
2350          18          20
2360          21          17
2370          20          17
2380          17          18
2390          16          16
2400          19          15
2410          17          18
2420          18          18
2430          20          13
2440          21          14
2450          19          19
2460          23          14
2470          21          16
2480          15          21
2490          17          18
2500          18          19
2510          16          20
2520          20          14
2530          18          17
2540          18          16
2550          18          15
2560          18          16
2570          18          18
2580          20          16
2590          19          17
2600          16          20
2610          16          21
2620          21          18
2630          19          15
2640          17          19
2650          18          21
2660          19          20
2670          18          19
2680          17          21
2690          18          16
2700          18          13
2710          17          21
2720          15          20
2730          18          17
2740          20          15
2750          18          17
2760          16          21
2770          18          22
2780          21          14
2790          14          21
2800          12          20
2810          15          21
2820          19          19
2830          16          19
2840          17          18
2850          14          19
2860          16          16
2870          12          23
2880          16          16
2890          13          21
2900          15          26
2910          18          17
2920          18          18
2930          16          15
2940          14          21
2950          14          23
2960          14          24
2970          14          21
2980          17          19
2990          15          21
3000          17          19
3010          12          28
3020          17          21
3030          14          24
3040          18          19
3050          14          24
3060          16          23
3070          14          23
3080          17          22
3090          16          25
3100          17          19
3110          16          22
3120          16          21
3130          20          20
3140          21          19
3150          17          19
3160          17          19
3170          18          22
3180          11          30
3190          13          21
3200          13          26
3210          17          17
3220          15          24
3230          13          23
3240          14          18
3250          17          15
3260          19          20
3270          14          20
3280          18          24
3290          16          20
3300          16          21
3310          19          17
3320          16          22
3330          17          15
3340          17          17
3350          15          17
3360          18          14
3370          18          13
3380          17          11
3390          16          20
3400          12          22
3410          12          19
3420          17          18
3430          18          14
3440          17          21
3450          17          20
3460          20          21
3470          18          19
3480          16          16
3490          13          17
3500          11          17
3510          18          13
3520          16          17
3530          19          16
3540          16          15
3550          18          15
3560          20          18
3570          17          16
3580          17          17
3590          15          21
3600          18          16
3610          17          14
3620          16          18
3630          18          14
3640          16          18
3650          13          21
3660          16          17
3670          19          20
3680          15          21
3690          17          22
3700          13          24
3710          17          19
3720          17          20
3730          16          20
3740          20          20
3750          20          23
3760          19          20
3770          15          25
3780          17          21
3790          20          23
3800          17          22
3810          20          20
3820          17          20
3830          20          16
3840          19          19
3850          16          13
3860          11          26
3870          16          17
3880          17          19
3890          17          16
3900          14          18
3910          16          17
3920          18          16
3930          17          19
3940          16          19
3950          17          16
3960          16          16
3970          14          23
3980          19          16
3990          17          14
4000          16          18
4010          15          16
4020          18          18
4030          17          15
4040          15          15
4050          17          18
4060          15          17
4070          15          19
4080          16          19
4090          18          15
4100          17          20
4110          18          18
4120          19          15
4130          18          17
4140          20          12
4150          15          17
4160          19          12
4170          21          16
4180          16          15
4190          19          15
4200          18          13
4210          17          16
4220          21           8
4230          18          13
4240          16          20
4250          18          15
4260          19          15
4270          17          22
4280          18          15
4290          17          16
4300          15          20
4310          18          18
4320          19          13
4330          19          11
4340          15          18
4350          18          13
4360          16          18
4370          18          18
4380          15          15
4390          17          15
4400          20           9
4410          16          15
4420          15          11
4430          14          20
4440          15          14
4450          21           8
4460          16          16
4470          16          17
4480          15          14
4490          17          19
4500          14          16
4510          17          12
4520          19          11
4530          17          14
4540          16          14
4550          15          16
4560          14          15
4570          15          15
4580          17          17
4590          15          16
4600          15          16
4610          19          12
4620          17          15
4630          12          15
4640          15          18
4650          20          12
4660          15          21
4670          21          13
4680          18          17
4690          19          12
4700          18          16
4710          14          21
4720          19          13
4730          18          15
4740          12          16
4750          18          10
4760          16          16
4770          13          21
4780          15          18
4790          16          18
4800          14          20
4810          15          18
4820          14          20
4830          16          21
4840          17          16
4850          16          17
4860          18          15
4870          17          22
4880          15          21
4890          18          22
4900          15          22
4910          13          20
4920          17          20
4930          18          23
4940          18          20
4950          16          18
4960          14          25
4970          17          18
4980          13          23
4990          18          17
5000           9          25
5010          16          21
5020          16          16
5030          16          17
5040          16          20
5050          15          19
5060          17          16
5070          15          23
5080          14          17
5090          12          19
5100          18          16
5110          15          15
5120          16          15
5130          14          18
5140          16          22
5150          20          18
5160          14          23
5170          10          23
5180          15          17
5190          15          20
5200          16          21
5210          13          27
5220          14          20
5230          18          16
5240          15          18
5250          15          19
5260          14          21
5270          16          27
5280          19          18
5290          15          23
5300          17          19
5310          14          22
5320          13          23
5330          13          21
5340          15          25
5350          16          19
5360          14          21
5370          18          17
5380          15          19
5390          19          18
5400          19          17
5410          18          13
5420          15          26
5430          14          29
5440          19          17
5450          14          25
5460          20          20
5470          17          24
5480          15          22
5490          11          31
5500          12          26
5510          13          24
5520          12          21
5530          13          21
5540          13          20
5550          13          18
5560          11          18
5570          13          19
5580          13          16
5590          15          19
5600          14          16
5610          13          17
5620          15          16
5630          12          20
5640          13          20
5650          17          21
5660          14          19
5670          14          18
5680          15          20
5690          14          22
5700          16          18
5710          17          18
5720          18          15
5730          16          21
5740          18          18
5750          19          20
5760          18          18
5770          18          18
5780          18          16
5790          18          17
5800          20          14
5810          19          21
5820          16          23
5830          15          17
5840          18          20
5850          19          13
5860          16          23
5870          14          23
5880          20          14
5890          15          18
5900          18          20
5910          14          21
5920          18          18
5930          16          14
5940          13          22
5950          15          14
5960          13          17
5970          19          12
5980          13          16
5990          18          11
6000          18          15
6010          16          17
6020          13          15
6030          16          12
6040          17          17
6050          17          17
6060          14          17
6070          17          15
6080          15          15
6090          15          15
6100          18          13
6110          13          22
6120          13          17
6130          14          20
6140          15          18
6150          13          21
6160          16          17
6170          13          22
6180          19          11
6190          16          14
6200          11          19
6210          13          14
6220          11          17
6230          15          15
6240          15          13
6250          18          13
6260          13          18
6270          15          12
6280          18          11
6290          15          15
6300          14          14
6310          14          17
6320          16          16
6330          14          14
6340          13          21
6350          12          22
6360          13          17
6370          14          16
6380          14          15
6390          14          14
6400          12          17
6410          15          18
6420          17          16
6430          16          18
6440          14          18
6450          17          16
6460          16          15
6470          15          16
6480          17          16
6490          14          18
6500          14          16
6510          17          13
6520          14          18
6530          16          14
6540          16          16
6550          16          15
6560          13          23
6570          14          22
6580          16          15
6590          11          20
6600          16          15
6610          13          20
6620          16          14
6630          17          11
6640          15          24
6650          13          16
6660          20          13
6670          17          17
6680          13          14
6690          13          18
6700          17          20
6710          17          17
6720          14          11
6730          13          15
6740          14          16
6750          14          16
6760          17          13
6770          15          12
6780          16          15
6790          15          19
6800          13          21
6810          16          19
6820          16          12
6830          17          17
6840          17          16
6850          15          17
6860          14          17
6870          17          15
6880          17          18
6890          18          16
6900          11          18
6910          11          21
6920          11          17
6930          19          19
6940          15          20
6950          14          22
6960          19          18
6970          13          25
6980          15          19
6990          16          16
7000          18          16
7010          15          20
7020          16          17
7030          16          17
7040          14          21
7050          15          25
7060          16          20
7070          17          31
7080          18          25
7090          19          23
7100          17          29
7110          18          27
7120          18          27
7130          18          20
7140          13          32
7150          19          23
7160          17          24
7170          19          23
7180          20          27
7190          19          24
7200          18          25
7210          15          22
7220          20          18
7230          16          20
7240          15          25
7250          19          21
7260          19          19
7270          18          21
7280          16          24
7290          18          20
7300          16          25
7310          19          15
7320          14          21
7330          17          20
7340          17          15
7350          20          15
7360          17          18
7370          16          22
7380          16          21
7390          19          13
7400          15          22
7410          19          21
7420          16          21
7430          18          22
7440          19          18
7450          18          17
7460          15          24
7470          13          20
7480          15          14
7490          16          11
7500          12          22
7510          17          13
7520          18          20
7530          19          19
7540          16          19
7550          15          25
7560          18          19
7570          19          25
7580          20          18
7590          19          20
7600          18          19
7610          16          19
7620          19          17
7630          15          18
7640          13          19
7650          19          13
7660          16          17
7670          19          12
7680          17          18
7690          17          19
7700          18          15
7710          17          18
7720          19          15
7730          17          18
7740          19          13
7750          10          20
7760          14          16
7770          18          17
7780          15          18
7790          16          14
7800          14          16
7810          15          21
7820          14          17
7830          14          24
7840          16          17
7850          17          18
7860          16          21
7870          13          23
7880          19          15
7890          14          21
7900          17          15
7910          16          15
7920          13          17
7930          14          20
7940          16          18
7950          15          22
7960          14          21
7970          13          24
7980          17          21
7990          17          21
8000          15          25
8010          15          23
8020          15          20
8030          15          22
8040          17          25
8050          17          22
8060          16          22
8070          14          24
8080          15          20
8090          20          15
8100          16          23
8110          19          18
8120          17          21
8130          21          16
8140          15          20
8150          19          19
8160          18          17
8170          15          21
8180          18          21
8190          20          20
8200          16          24
8210          17          22
8220          18          19
8230          16          21
8240          16          24
8250          16          18
8260          20          17
8270          15          24
8280          19          19
8290          18          22
8300          18          21
8310          20          19
8320          17          22
8330          17          24
8340          15          23
8350          18          15
8360          20          14
8370          13          23
8380          16          17
8390          14          23
8400          18          20
8410          20          16
8420          16          24
8430          15          22
8440          16          18
8450          18          21
8460          19          24
8470          19          23
8480          21          19
8490          20          20
8500          17          22
8510          17          16
8520          19          21
8530          17          25
8540          20          17
8550          22          16
8560          17          16
8570          14          18
8580          19          20
8590          18          21
8600          17          17
8610          15          21
8620          15          21
8630          18          12
8640          14          23
8650          17          21
8660          13          22
8670          15          25
8680          16          16
8690          15          19
8700          16          17
8710          17          17
8720          18          18
8730          14          21
8740          19          14
8750          14          19
8760          17          20
8770          20          15
8780          21          15
8790          17          24
8800          15          29
8810          17          22
8820          17          24
8830          20          18
8840          18          22
8850          17          17
8860          15          21
8870          16          23
8880          17          21
8890          17          20
8900          15          24
8910          12          23
8920          11          25
8930          14          25
8940          16          24
8950          13          24
8960          18          17
8970          16          15
8980          16          17
8990          13          21
9000          15          20
9010          17          21
9020          21          19
9030          18          19
9040          16          20
9050          16          22
9060          17          19
9070          19          21
9080          17          20
9090          18          19
9100          19          17
9110          16          20
9120          17          21
9130          21          17
9140          20          24
9150          17          20
9160          16          19
9170          16          24
9180          18          23
9190          19          24
9200          15          22
9210          20          16
9220          21          14
9230          15          19
9240          16          17
9250          18          25
9260          17          20
9270          15          25
9280          18          21
9290          15          20
9300          18          19
9310          18          19
9320          18          19
9330          16          22
9340          18          19
9350          17          19
9360          21          18
9370          18          18
9380          17          18
9390          16          19
9400          17          17
9410          18          18
9420          16          20
9430          19          18
9440          17          18
9450          19          18
9460          17          17
9470          18          18
9480          21          14
9490          17          22
9500          20          19
9510          18          18
9520          21          18
9530          21          22
9540          21          17
9550          16          21
9560          17          19
9570          20          20
9580          20          18
9590          24          16
9600          18          23
9610          19          21
9620          18          22
9630          20          20
9640          18          21
9650          21          23
9660          17          24
9670          18          17
9680          18          25
9690          20          22
9700          18          22
9710          20          21
9720          22          14
9730          18          24
9740          22          19
9750          24          17
9760          17          22
9770          21          15
9780          18          20
9790          20          16
9800          21          16
9810          20          18
9820          17          21
9830          19          20
9840          18          21
9850          18          22
9860          21          17
9870          18          28
9880          20          18
9890          19          24
9900          18          26
9910          22          18
9920          23          19
9930          17          24
9940          18          21
9950          18          21
9960          16          19
9970          20          22
9980          22          15
9990          17          24
10000          18          24
