Time   C(t)   
ps   
0           1           1  7.55218e-10   0.0342911
10    0.666556    0.676586     1.26296   0.0194363
20    0.611274    0.622967    -2.68019  0.00458143
30    0.574927    0.587714    -1.07684  0.00345739
40    0.542127    0.555899    -2.96892   0.0028603
50    0.517721    0.532228    -1.84685  0.00243075
60    0.493512    0.508747    -1.68759  0.00211766
70    0.475368    0.491149    -1.49058  0.00195502
80    0.454411    0.470822    -1.53202  0.00194453
90    0.436478    0.453428    -1.89559  0.00178696
100    0.418672    0.436158   -0.569872  0.00160232
110    0.404431    0.422346     -2.4218  0.00138654
120    0.390941    0.409262    -2.74656  0.00140575
130    0.376316    0.395076     -2.0235  0.00132852
140    0.364371    0.383491    -2.95178  0.00114641
150    0.353388    0.372838   -0.378985  0.00106648
160    0.343041    0.362803   -0.903663  0.00123963
170    0.328595    0.348791     1.22727  0.00121722
180    0.318697    0.339191    -2.47326  0.00104657
190    0.307664    0.328489     -3.6389  0.00100942
200    0.298509    0.319609    -3.80134  0.000864817
210    0.290368    0.311713    -4.32504  0.000881135
220    0.280886    0.302517    -5.04951  0.000880724
230    0.272753    0.294629    -4.24709  0.000830784
240     0.26427    0.286401     -2.6806  0.000728688
250    0.258179    0.280493    -3.48573  0.000728221
260    0.249706    0.272275    -4.73245  0.000773305
270    0.242713    0.265492    -4.93496  0.00067496
280    0.236207    0.259181    -2.88542  0.000686799
290    0.228977    0.252169    -2.64387  0.000646502
300    0.223277     0.24664    -3.93148  0.000562274
310    0.217732    0.241262    -1.36041  0.000557142
320    0.212134    0.235833    -2.48638  0.000466158
330    0.208409     0.23222     -1.4424  0.000456724
340    0.202999    0.226973   -0.719609  0.000564615
350    0.197116    0.221267    -3.13248  0.000429295
360    0.194413    0.218645    -1.24327  0.000308398
370    0.190948    0.215284     -2.7726  0.000439443
380    0.185624    0.210121    -3.61721  0.000433955
390    0.182269    0.206866    -2.81392  0.000390692
400    0.177811    0.202542     -3.7393  0.000395674
410    0.174356    0.199191     -3.8601  0.000360659
420    0.170597    0.195546    -4.26256  0.00046078
430     0.16514    0.190253    -1.93097  0.000376947
440    0.163059    0.188234    -1.93133  0.000333414
450    0.158472    0.183785   -0.724281  0.00046341
460     0.15379    0.179244    -2.93676  0.000387927
470    0.150713     0.17626    -3.13908  0.000390936
480    0.145972    0.171661    -3.46022  0.000366147
490     0.14339    0.169157    -1.53098  0.000262632
500    0.140719    0.166566    -2.37559  0.000256755
510    0.138255    0.164176    -4.78763  0.00025946
520     0.13553    0.161533    -4.66743  0.000319848
530    0.131858    0.157972    -3.66273  0.000281945
540    0.129891    0.156064    -3.38264  0.000201237
550    0.127834    0.154068    -3.94711  0.000317459
560    0.123542    0.149905    -4.66986  0.000395276
570    0.119928      0.1464    -3.34343  0.000378948
580    0.115963    0.142554    -2.78037  0.000261444
590    0.114699    0.141329    -3.46407  0.000191097
600    0.112141    0.138848    -4.02807  0.000243153
610    0.109836    0.136612    -2.17877  0.000211306
620    0.107915    0.134749    -4.06948  0.000149157
630    0.106853    0.133719    -4.07019  0.000184128
640    0.104232    0.131177    -2.70263  0.000145442
650    0.103944    0.130897     -3.5875  0.000143713
660    0.101358    0.128389    -1.25607  0.00028058
670   0.0983324    0.125455    -2.22112  0.000168238
680   0.0979931    0.125125  -0.0107589  7.52676e-05
690   0.0968271    0.123994   -0.212129  0.000197246
700   0.0940482    0.121299    -0.61381  0.000217181
710   0.0924835    0.119782   -0.855995  0.00020246
720    0.089999    0.117372   -0.614751  0.000167914
730   0.0891252    0.116524   -0.374097  0.000126831
740   0.0874624    0.114911    -3.22876  0.000122686
750   0.0866715    0.114144    -3.02805  0.000107657
760   0.0853092    0.112823    -2.18509  0.000142961
770   0.0838122    0.111371    -3.23029  0.000136673
780   0.0825758    0.110172    -2.66801  0.000128187
790   0.0812485    0.108884    -1.62274   8.226e-05
800   0.0809306    0.108576    -2.50801  0.00017499
810   0.0777487     0.10549    -2.58787  0.000245775
820    0.076015    0.103808    -1.42259  0.000105128
830   0.0756461    0.103451    -1.62463  6.12389e-05
840   0.0747903    0.102621    -1.34217  9.45266e-05
850   0.0737556    0.101617    -1.66478  0.000121298
860   0.0723643    0.100268   -0.659926  0.000128198
870   0.0711916   0.0991301    -1.14304  7.07924e-05
880   0.0709485   0.0988943    -1.46494  3.32251e-05
890   0.0705271   0.0984856     -1.0633  0.000122255
900   0.0685034   0.0965227   -0.943321  0.000162516
910   0.0672768   0.0953331    0.463445  8.93526e-05
920   0.0667163   0.0947894    0.824976  2.48719e-05
930   0.0667794   0.0948506     1.66864  7.18776e-05
940   0.0652788   0.0933951     1.99034  0.000179302
950   0.0631933   0.0913724     1.42779  6.54764e-05
960   0.0639692    0.092125     1.98932  5.00893e-05
970   0.0621916   0.0904008     1.42669  0.000108405
980   0.0618011   0.0900221     1.38564  7.05328e-05
990   0.0607809   0.0890325     1.42528  0.000115631
1000   0.0594885    0.087779     1.42575  5.54919e-06
1010   0.0606699   0.0889249     1.74572  3.04965e-05
1020   0.0588786   0.0871874     1.78673  0.000113888
1030   0.0583922   0.0867157     1.30393  2.83714e-05
1040   0.0583111   0.0866371     1.86644  4.42939e-05
1050   0.0575063   0.0858564     1.78638  8.51015e-05
1060   0.0566091   0.0849862     2.30894  8.52838e-05
1070   0.0558006   0.0842021     2.34889  0.000121791
1080   0.0541733   0.0826237      1.4243  6.52261e-05
1090   0.0544961   0.0829368     1.78516  2.68202e-05
1100   0.0536369   0.0821034    0.819518  8.14568e-05
1110   0.0528669   0.0813566     1.14086  8.61973e-05
1120   0.0519129   0.0804313     1.66405  7.72582e-05
1130   0.0513218    0.079858     1.06143  2.26242e-05
1140   0.0514604   0.0799925   -0.145692  0.000102765
1150   0.0492665   0.0778645     1.34215  0.000192172
1160    0.047617   0.0762646    0.819715  5.05157e-05
1170   0.0482562   0.0768846     1.70302  4.15685e-05
1180   0.0467856   0.0754583     1.42171  0.000124254
1190   0.0457711   0.0744742     1.13988  4.63625e-05
1200   0.0458584   0.0745589    0.858449  4.8838e-05
1210   0.0447943   0.0735269     1.70318  0.000145713
1220   0.0429441   0.0717323     2.42652  0.000136762
1230   0.0420591   0.0708739     2.14501  5.8566e-05
1240   0.0417728   0.0705962     1.01924  3.09708e-05
1250   0.0414397   0.0702731     1.54097  7.96733e-05
1260   0.0401793   0.0690507     1.05935  0.000109949
1270   0.0392407   0.0681403    0.737101  9.16507e-05
1280   0.0383463   0.0672728    0.897616  3.14444e-05
1290   0.0386118   0.0675303     2.58558  7.57884e-05
1300   0.0368306   0.0658026     2.06369  6.18653e-05
1310   0.0373745   0.0663302     3.22854  -8.21613e-07
1320    0.036847   0.0658186     3.38913  0.000106511
1330   0.0352443   0.0642641     2.46454  7.16301e-05
1340   0.0354144   0.0644291     3.06732  5.08368e-05
1350   0.0342275   0.0632779     3.71099  0.000100082
1360   0.0334127   0.0624876     2.46411  3.70063e-05
1370   0.0334874     0.06256     2.14292  8.95783e-06
1380   0.0332336   0.0623139     2.34367  5.59811e-05
1390   0.0323678   0.0614741     3.10723  9.37423e-05
1400   0.0313587   0.0604954     2.34351  0.000171707
1410   0.0289337   0.0581433      1.5396  7.05786e-05
1420   0.0299472   0.0591263     2.02099  9.54131e-06
1430   0.0287428   0.0579582       2.343  3.0712e-05
1440   0.0293329   0.0585305    0.934899  2.6156e-05
1450   0.0282197   0.0574508     1.69878  0.000109074
1460   0.0271514   0.0564147     1.45844  9.74661e-05
1470   0.0262704   0.0555601     2.38315  -1.63308e-05
1480   0.0274781   0.0567315    0.974654  2.78214e-06
1490   0.0262147   0.0555061     1.01531  3.83628e-05
1500   0.0267108   0.0559873    0.733293  1.94823e-05
1510   0.0258251   0.0551282    0.813903  4.8098e-05
1520   0.0257488   0.0550543    0.732704  6.49817e-05
1530   0.0245255   0.0538677    0.893651  6.74579e-05
1540   0.0243997   0.0537457     1.37606  3.4151e-05
1550   0.0238424   0.0532052    0.330474  1.02256e-05
1560   0.0241952   0.0535473      1.0938  3.43109e-05
1570   0.0231562   0.0525396    0.892669  9.44076e-05
1580    0.022307    0.051716     1.53642  5.37306e-05
1590   0.0220816   0.0514973     1.41546  3.46171e-05
1600   0.0216147   0.0510444     2.05858  5.6399e-05
1610   0.0209536   0.0504033     1.69642  3.71965e-05
1620   0.0208708   0.0503229     1.77648  2.28135e-05
1630   0.0204974   0.0499607     2.05839  4.94842e-05
1640   0.0198811    0.049363      1.6155  5.92812e-05
1650   0.0193117   0.0488108     1.37433  5.94248e-05
1660   0.0186926   0.0482102    0.489575  4.74157e-05
1670   0.0183634    0.047891     0.52992  4.75495e-05
1680   0.0177416   0.0472878    0.690513  2.57231e-05
1690    0.017849    0.047392    0.811194  -8.31531e-06
1700   0.0179079   0.0474492   0.0875413  1.42921e-06
1710   0.0178204   0.0473643  -0.0735235  2.83187e-05
1720   0.0173415   0.0468998   -0.274423  6.2628e-05
1730   0.0165678   0.0461494     1.29376  2.35519e-05
1740   0.0168705   0.0464429    0.931954  -1.55803e-05
1750   0.0168794   0.0464516    0.851696  -2.05499e-05
1760   0.0172815   0.0468416     1.37418  -6.23864e-05
1770   0.0181272   0.0476618     1.41444  -4.28102e-05
1780   0.0181377    0.047672     1.57511  4.08579e-05
1790     0.01731   0.0468692     2.25889  5.07794e-05
1800   0.0171221    0.046687     3.54545  3.11696e-05
1810   0.0166866   0.0462646     3.54561  2.38103e-05
1820   0.0166459   0.0462251     3.02187  1.89387e-05
1830   0.0163078   0.0458972     2.82034  6.11334e-05
1840   0.0154232   0.0450392      3.3431  3.14452e-05
1850   0.0156789   0.0452872     4.02625  4.40275e-05
1860   0.0145427   0.0441852     3.66456  5.15241e-05
1870   0.0146484   0.0442878     4.46878  1.43317e-05
1880    0.014256   0.0439071      4.5492  3.18062e-05
1890   0.0140123   0.0436708     3.94583  5.68855e-05
1900   0.0131183   0.0428037     3.86522  4.94796e-05
1910   0.0130227   0.0427109     3.30224  1.45771e-05
1920   0.0128268   0.0425209     4.99036  7.48041e-05
1930   0.0115267   0.0412599     4.46831  6.23696e-05
1940   0.0115794    0.041311     4.02538  5.50636e-05
1950   0.0104254   0.0401917     4.14622  3.24659e-05
1960   0.0109301   0.0406812     4.62773  7.44332e-06
1970   0.0102765   0.0400473     5.55303  -1.82027e-07
1980   0.0109337   0.0406848     5.75306  1.75892e-05
1990  0.00992473   0.0397061     4.86878  0.000113672
2000  0.00866028   0.0384797     4.66741  1.76741e-05
2010  0.00957125   0.0393633     4.54649  -3.79431e-05
2020  0.00941914   0.0392157     4.26537  1.77678e-05
2030  0.00921589   0.0390186     4.98891  1.01762e-05
2040  0.00921562   0.0390183     4.74786  -7.60634e-06
2050  0.00936802   0.0391662      4.9488  3.0624e-05
2060  0.00860314   0.0384243      5.0694  5.61655e-05
2070  0.00824471   0.0380766     4.54665  2.82237e-05
2080  0.00803866   0.0378768     4.62651  6.92479e-05
2090  0.00685975   0.0367333     4.26423  3.34885e-05
2100  0.00736889   0.0372272     4.02291  -4.80064e-06
2110  0.00695576   0.0368265     3.78178  -1.25766e-05
2120  0.00762042   0.0374711     2.89632  1.06064e-05
2130  0.00674363   0.0366207     3.29875  5.17413e-05
2140   0.0065856   0.0364674     3.90203  -1.25426e-05
2150  0.00699448    0.036864     2.89663  1.84383e-05
2160  0.00621683   0.0361098     3.86153  -1.00269e-05
2170  0.00719502   0.0370585     2.97689  8.18307e-06
2180  0.00605317    0.035951     3.98296  4.17601e-05
2190  0.00635982   0.0362484     2.93694  4.38048e-07
2200  0.00604441   0.0359425     2.53467  3.67755e-05
2210  0.00562431   0.0355351     2.89648  -3.07817e-05
2220  0.00666005   0.0365396     1.89112  -2.29499e-05
2230  0.00608331   0.0359803     1.12688  2.64479e-05
2240  0.00613109   0.0360266     1.93138  4.37675e-07
2250  0.00607455   0.0359718    0.925946  1.87359e-05
2260  0.00575637   0.0356632    0.523756  5.67674e-06
2270  0.00596102   0.0358616     1.08627  3.10417e-06
2280  0.00569429   0.0356029     1.20718  -1.79232e-05
2290  0.00631948   0.0362093      1.0062  -2.05407e-05
2300   0.0061051   0.0360014    0.845374  -1.80169e-05
2310  0.00667982   0.0365588     0.72434  -2.85523e-05
2320  0.00667615   0.0365553    0.764332  2.14767e-05
2330  0.00625029   0.0361422    0.804597  5.64908e-06
2340  0.00656316   0.0364457    0.884502  -2.07456e-05
2350   0.0066652   0.0365446    0.483136  -1.02168e-05
2360   0.0067675   0.0366439    0.804245  -2.88125e-05
2370  0.00724145   0.0371036     1.04561  5.6677e-06
2380  0.00665415   0.0365339    0.804441  2.42296e-05
2390  0.00675686   0.0366335   0.0402462  -3.42538e-05
2400  0.00733922   0.0371984   -0.161084  -3.43099e-05
2410  0.00744305   0.0372991  -0.0406788  -5.0599e-06
2420  0.00744042   0.0372965   -0.362259  1.09604e-05
2430  0.00722385   0.0370865   -0.362376  -3.45367e-05
2440  0.00813115   0.0379665   -0.362887  -2.65096e-05
2450  0.00775404   0.0376007    0.481722  1.62826e-05
2460   0.0078055   0.0376506    0.401072  -4.54695e-05
2470  0.00866343   0.0384828    0.441024  -3.74599e-05
2480   0.0085547   0.0383773    -1.04694  -3.22383e-05
2490   0.0093082   0.0391081   -0.564453  -4.03624e-05
2500  0.00936195   0.0391603   -0.041974  -7.83468e-05
2510   0.0108751   0.0406279   -0.162733  -7.03418e-05
2520   0.0107688   0.0405248    0.480466  6.21343e-05
2530  0.00963245   0.0394226    0.119052  3.23839e-05
2540   0.0101211   0.0398966    0.360255  -2.4476e-05
2550    0.010122   0.0398974    0.883128  -2.72921e-05
2560   0.0106669    0.040426    0.359864  -3.8226e-05
2570   0.0108865    0.040639    0.118462  2.98453e-05
2580     0.01007   0.0398471    0.802516  3.25873e-05
2590   0.0102347   0.0400068     1.64638  -4.11114e-05
2600   0.0108923   0.0406446    0.520339  -3.84509e-05
2610   0.0110038   0.0407527    0.600832  -3.31033e-05
2620   0.0115543   0.0412867    0.479523  -4.41494e-05
2630   0.0118867   0.0416091    0.519711  9.32221e-05
2640  0.00968989   0.0394784    0.440278  5.19961e-05
2650   0.0108468   0.0406005    0.761033  -2.4848e-05
2660   0.0101869   0.0399604   0.0373018  9.64626e-05
2670  0.00891757   0.0387293    0.359353  6.90309e-05
2680  0.00880624   0.0386213     0.80181  -4.14597e-05
2690  0.00974677   0.0395335   -0.525522  1.95014e-05
2700  0.00841621    0.038243    -0.36434  2.73832e-06
2710    0.009692   0.0394804    -1.20887  -3.04416e-05
2720  0.00902504   0.0388335    -1.16853  -5.59916e-06
2730  0.00980398    0.039589   -0.525836  3.90959e-05
2740  0.00824312   0.0380751   -0.685802  3.0664e-05
2750   0.0091907   0.0389942    -1.08866  -4.73604e-05
2760  0.00919033   0.0389938    -1.49065  5.88314e-05
2770  0.00801408   0.0378529    -2.01258  4.77001e-05
2780  0.00823633   0.0380685     -2.6561  -1.94489e-05
2790  0.00840306   0.0382302    -2.05301  3.10945e-05
2800  0.00761444   0.0374653    -1.24886  -2.66689e-06
2810  0.00845639    0.038282    -1.36982  -2.51144e-05
2820  0.00811672   0.0379525    -1.20895  5.78719e-06
2830  0.00834065   0.0381697   -0.444872  3.12864e-05
2840    0.007491   0.0373456   -0.766648  4.54519e-05
2850  0.00743161    0.037288   -0.686273  2.86281e-05
2860  0.00691843   0.0367903    -1.16927  4.00329e-05
2870  0.00663095   0.0365114    -1.85262  4.86855e-05
2880  0.00594472   0.0358458   -0.928145  4.31007e-05
2890  0.00576894   0.0356753    -2.21478  6.19795e-06
2900  0.00582076   0.0357256    -3.01897  6.90413e-05
2910  0.00438811   0.0343361    -2.69719  5.76947e-05
2920  0.00466687   0.0346064    -2.09449  -5.00747e-06
2930  0.00448826   0.0344332    -2.01423  -5.37938e-05
2940  0.00574275   0.0356499    -3.06006  -3.08752e-05
2950  0.00510577   0.0350321    -2.13503  5.30225e-07
2960  0.00573214   0.0356397    -1.85376  -4.83279e-05
2970  0.00607233   0.0359696    -1.29121  9.1838e-06
2980  0.00554847   0.0354615   -0.969315  1.20344e-05
2990  0.00583164   0.0357362    -1.25102  -4.28144e-05
3000  0.00640475    0.036292    -1.37158  -5.44988e-05
3010  0.00692161   0.0367933    -1.29156  -1.69607e-05
3020  0.00674397    0.036621    -1.01021  -4.3196e-05
3030  0.00778553   0.0376313    -1.17147  -3.15986e-05
3040  0.00737594    0.037234    -1.21154   5.849e-05
3050  0.00661573   0.0364967     -1.2113  2.0717e-05
3060   0.0069616   0.0368321    -1.57358  -1.71126e-05
3070  0.00695799   0.0368286    -1.45333  3.25369e-05
3080  0.00631086    0.036201    -1.85521  3.84441e-05
3090   0.0061891   0.0360829    -1.05106  -2.30096e-05
3100  0.00677105   0.0366473    -1.77448  2.69175e-05
3110  0.00565075   0.0355607    -1.77487  2.39302e-05
3120  0.00629245   0.0361831    -1.73484  3.8857e-05
3130  0.00487361   0.0348069    -1.37292  6.24255e-05
3140  0.00504394   0.0349721    -1.77468  6.72136e-07
3150  0.00486017   0.0347939    -1.69469  2.13624e-05
3160  0.00461669   0.0345578    -1.45318  1.25292e-05
3170  0.00460959   0.0345509    -1.09106  -7.94228e-05
3180  0.00620515   0.0360984   -0.770143  -4.98149e-05
3190  0.00560589   0.0355172    -1.01139  3.62013e-05
3200  0.00548112   0.0353962   -0.850283  3.93221e-05
3210  0.00481944   0.0347544    -1.49352  5.13397e-05
3220  0.00445433   0.0344003   -0.930619  -2.30353e-06
3230  0.00486551   0.0347991   -0.608685  7.42241e-07
3240  0.00443948   0.0343859   0.0743881  4.26652e-05
3250  0.00401221   0.0339715   -0.527996  -8.26332e-06
3260  0.00460475   0.0345462   0.0741515  -5.20507e-06
3270  0.00411631   0.0340724   -0.247821  2.48209e-05
3280  0.00410833   0.0340647    0.114654  -2.63511e-05
3290  0.00464333   0.0345836   -0.327803  -4.75382e-05
3300  0.00505909   0.0349868  -0.0866383  5.5183e-05
3310  0.00353967   0.0335131   -0.367952  5.8232e-05
3320  0.00389445   0.0338572   -0.408886  -7.4978e-05
3330  0.00503923   0.0349676   -0.408886  9.95618e-06
3340  0.00369533   0.0336641    -1.13246  5.5453e-05
3350  0.00393017   0.0338919   -0.529409  1.91588e-05
3360  0.00331215   0.0332925    -0.28793  1.61015e-05
3370  0.00360814   0.0335795  -0.00657662  -5.10474e-05
3380   0.0043331   0.0342827    0.757225  -4.50479e-05
3390   0.0045091   0.0344534    0.354956  4.6781e-05
3400  0.00339748   0.0333752    0.395889  6.89677e-06
3410  0.00437116   0.0343196    0.637133  -6.36776e-05
3420  0.00467103   0.0346105   -0.127297  -4.85172e-05
3430  0.00534151   0.0352608   0.0736807  -4.55514e-05
3440  0.00558206   0.0354941   -0.369012  1.91724e-05
3450  0.00495806   0.0348889     0.35527  1.91649e-05
3460  0.00519876   0.0351223    0.877788  9.98843e-06
3470  0.00475829   0.0346951    0.877945  3.16983e-05
3480   0.0045648   0.0345074     1.11911  -3.03671e-05
3490  0.00536563   0.0352842    0.837168  1.6326e-05
3500  0.00423828   0.0341907    0.717312  5.36513e-05
3510  0.00429261   0.0342434     1.44065  4.14141e-05
3520     0.00341   0.0333874     1.76255  2.26993e-05
3530  0.00383862   0.0338031     2.12443  -1.47292e-05
3540  0.00370458   0.0336731    0.957966  4.01231e-06
3550  0.00375838   0.0337253     1.48053  4.03825e-06
3560  0.00362381   0.0335947     1.48005  5.44037e-05
3570   0.0026703   0.0326699    0.837129  4.06416e-06
3580  0.00354253   0.0335159     1.23904  7.37514e-06
3590   0.0025228   0.0325268     1.60073  0.000124272
3600  0.00105708   0.0311052    0.917465  3.27649e-05
3610   0.0018675   0.0318913    0.877042  -1.45452e-05
3620  0.00134798   0.0313874    0.836893  2.66134e-05
3630  0.00133523    0.031375    0.997408  2.99208e-05
3640  0.000749569    0.030807    0.917072  2.6782e-05
3650  0.000799594   0.0308555    0.475086  -3.05497e-05
3660  0.00136056   0.0313996     1.07767  1.09634e-05
3670  0.000580325   0.0306428     1.35922  3.33105e-05
3680  0.000694353   0.0307534     1.03748  -4.99162e-05
3690  0.00157865   0.0316111     1.72087  -3.39498e-05
3700  0.00137335    0.031412     1.68052  2.37795e-05
