Time   C(t)   
ps   
0           1           1  1.35235e-09    0.036991
10    0.635013     0.83009   -0.507343   0.0197044
20    0.605912    0.816543    0.982848  0.00241777
30    0.586658     0.80758    -2.00067  0.00157684
40    0.574376    0.801862    0.981278  0.00115686
50     0.56352    0.796809     1.67141  0.000904837
60    0.556279    0.793438     1.44036  0.00107658
70    0.541989    0.786786      2.4764  0.000799242
80    0.540294    0.785997     1.09568  0.000655663
90    0.528876    0.780681      1.2111  0.000936267
100    0.521569    0.777279      5.1148  0.000366151
110    0.521553    0.777272     4.31048  0.000452536
120    0.512518    0.773066    0.636491  0.000879994
130    0.503953    0.769079    -1.20039  0.000735241
140    0.497813    0.766221     2.35796  0.000663552
150    0.490682    0.762901    0.635595  0.000493523
160    0.487943    0.761626    -1.31839  0.000678481
170    0.477112    0.756584    0.980718  0.000802082
180    0.471901    0.754158     1.78246  0.000742616
190     0.46226     0.74967    -1.65992  0.000731631
200    0.457268    0.747346      2.4727  0.000315191
210    0.455956    0.746735     1.55241  0.000463779
220    0.447993    0.743028     1.20908  0.000488998
230    0.446176    0.742183    0.403531  0.000292933
240    0.442134    0.740301     1.20639  0.000355196
250    0.439072    0.738876     1.66682  0.000516665
260    0.431801    0.735491    -2.00785  0.000282376
270    0.433425    0.736246   -0.287051  0.000469229
280    0.422416    0.731122     1.32225  0.000370339
290    0.426018    0.732798     1.78044  -0.000186718
300    0.426151     0.73286     1.43587  0.000409165
310    0.417834    0.728989  -0.0566703  0.000608578
320    0.413979    0.727194    -1.20555  0.000572722
330     0.40638    0.723657     2.46967  0.000374281
340    0.406493    0.723709     1.77898  0.000250699
350    0.401366    0.721323     3.96054  0.000788036
360    0.390733    0.716372     1.66525  0.000439267
370    0.392581    0.717233     1.78044  -2.22981e-05
380    0.391179     0.71658     3.15633  0.000453627
390    0.383508    0.713009   0.0578471  0.000466801
400    0.381843    0.712234     3.73027  5.37366e-05
410    0.382433    0.712509      4.6491  0.000317913
420    0.375484    0.709274     2.00712  0.000708243
430    0.368269    0.705915     3.96043  0.000357027
440    0.368344     0.70595      4.8787  4.29317e-05
450     0.36741    0.705515     4.41928  0.000143966
460    0.365464     0.70461     4.99232  0.000636977
470     0.35467    0.699585      2.8111  0.000524016
480    0.354984    0.699731     1.43363  -0.000284635
490    0.360363    0.702235      3.9574  0.000209355
500    0.350797    0.697782     3.38503  0.000538893
510    0.349585    0.697217      4.5329  0.000413461
520    0.342528    0.693932     1.77775  0.000248733
530    0.344611    0.694902     2.23481  -0.000144856
540    0.345425    0.695281      4.8759  0.000122347
550    0.342164    0.693762     5.56401  0.000198945
560    0.341446    0.693428     5.67898  -9.41917e-05
570    0.344047    0.694639     3.49731  0.000174202
580    0.337962    0.691806     6.13716  0.00074994
590    0.329049    0.687657     2.46586  0.000597683
600    0.326008    0.686242      4.4176  -9.3174e-05
610    0.330912    0.688525     3.72635  0.000202262
620    0.321963    0.684359     4.64439  0.000574629
630     0.31942    0.683175     4.87511  0.000370383
640    0.314555     0.68091     3.03901  0.000512703
650    0.309166    0.678401      4.3014  6.25774e-05
660    0.313304    0.680328     3.61183  -0.0003627
670     0.31642    0.681778     4.87556  0.000308292
680    0.307138    0.677457     2.57881  0.000269508
690    0.311029    0.679269     6.13593  -0.000221218
700    0.311562    0.679517     4.29849  0.000607644
710    0.298876    0.673611     2.57769  0.000413607
720     0.30329    0.675666     4.06923  9.07153e-05
730    0.297062    0.672767     4.41401  0.000155349
740    0.300183     0.67422     4.18374  0.000494623
750     0.28717    0.668162     2.69277  0.000794528
760    0.284293    0.666822     4.75667  -3.8071e-05
770    0.287931    0.668516     4.06721  -5.08636e-05
780     0.28531    0.667296     1.31474  0.000210129
790    0.283729     0.66656     1.88677  -0.000129625
800    0.287902    0.668503     3.14916  -0.000168902
810    0.287107    0.668132     4.41233  0.000420682
820    0.279489    0.664586      3.6097  0.000513165
830    0.276843    0.663354   -0.408184  0.000199093
840    0.275507    0.662732     1.42825  1.53333e-05
850    0.276537    0.663212     1.54165  9.45374e-05
860    0.273616    0.661852     3.60981  0.000714402
870    0.262249     0.65656     5.10179  0.000464644
880    0.264323    0.657526     5.21564  0.000109543
890    0.260058     0.65554     1.08346  0.000109428
900    0.262135    0.656507     5.90476  -0.000380127
910     0.26766    0.659079     4.29759  -6.24895e-05
920    0.263385    0.657089    0.853084  0.000587344
930    0.255913    0.653611    0.623935  0.000189772
940    0.259589    0.655322     2.11569  -0.000168447
950    0.259282    0.655179     2.00196  -0.000129114
960    0.262171    0.656524     0.62259  8.41662e-05
970    0.257599    0.654396    0.967938  0.00076476
980    0.246876    0.649404   -0.752747  0.000244898
990    0.252701    0.652116     2.00196  -0.000128249
1000    0.249441    0.650598     2.80504  0.000125445
1010    0.250192    0.650948      2.9199  0.000139369
1020    0.246654    0.649301   -0.868385  5.20498e-06
1030    0.250088    0.650899   -0.984137  -0.000397558
1040    0.254605    0.653002     2.57365  0.000180118
1050    0.246486    0.649222      1.0829  0.000785898
1060    0.238887    0.645685    0.853307  0.000423634
1070    0.238013    0.645278     2.68985  0.000141476
1080    0.236058    0.644368    0.393891  0.000276889
1090    0.232475      0.6427     1.08324  0.000209778
1100    0.231862    0.642415    0.508072  7.22781e-06
1110    0.232331    0.642633    0.967377  -6.25476e-06
1120    0.231987    0.642473     3.26222  0.000170156
1130    0.228928    0.641049     3.03363  0.000238363
1140     0.22722    0.640254   -0.754877  -4.67338e-05
1150    0.229862    0.641484     0.96648  0.000239425
1160    0.222431    0.638024     2.68896  0.000471213
1170    0.220438    0.637096     3.14916  -3.25412e-05
1180    0.223082    0.638327     1.42657  -0.00041503
1190    0.228739    0.640961     0.39176  -0.000101074
1200    0.225104    0.639268      3.3773  0.000199529
1210    0.224748    0.639103   -0.181277  0.000186456
1220    0.221374    0.637532     1.08089  0.000310268
1230    0.218543    0.636214     1.76979  7.73221e-05
1240    0.219828    0.636813     1.99927  0.000215367
1250    0.214235    0.634209    0.278476  0.000449689
1260    0.210834    0.632626     1.31216  9.22188e-05
1270    0.212391     0.63335     1.42489  0.000355063
1280    0.203733     0.62932    0.622814  0.000189407
1290    0.208603    0.631587       2.113  0.000218312
1300    0.199367    0.627287     1.42422  0.000522831
1310    0.198146    0.626719      2.9162  -8.58754e-05
1320    0.201084    0.628087      3.8347  -0.000210828
1330    0.202363    0.628682     3.37416  3.88533e-05
1340    0.200307    0.627725      3.1449  0.000164036
1350    0.199082    0.627155     3.14591  0.000485009
1360    0.190607    0.623209     2.11357  0.000318277
1370    0.192716    0.624191     2.11222  1.23106e-05
1380    0.190361    0.623095     3.25998  0.000585461
1390    0.181007    0.618741     2.57119  0.000460432
1400    0.181152    0.618808     1.42399  -1.45517e-05
1410    0.181298    0.618876     2.45622  -0.00025317
1420    0.186216    0.621165    0.388061  -8.48569e-05
1430    0.182995    0.619666     1.30734  6.91853e-05
1440    0.184832    0.620521   -0.414798  0.000435797
1450    0.174279    0.615609    0.848935  0.00071809
1460     0.17047    0.613835   -0.872308  4.25979e-05
1470    0.173427    0.615212     1.30835  -0.000281953
1480    0.176109     0.61646     3.02892  0.000127693
1490    0.170874    0.614023     1.99647  0.000354166
1500    0.169026    0.613163     1.88162  0.00035521
1510    0.163769    0.610716    0.505718  0.000128672
1520    0.166452    0.611965    0.159362  7.25783e-05
1530    0.162318     0.61004    0.733409  0.000598956
1540    0.154473    0.606388     1.07831  -0.000140848
1550    0.165135    0.611352    0.619003  -0.000311254
1560    0.160698    0.609286  -0.0703467  0.000344147
1570    0.158252    0.608147     2.68481  0.000187749
1580    0.156943    0.607538   -0.299719  -0.000126687
1590    0.160786    0.609327    -1.56289  7.40059e-05
1600    0.155463    0.606849     1.53627  0.000360632
1610    0.153573    0.605969   -0.186547  0.00017492
1620    0.151965    0.605221   -0.416031  1.71378e-05
1630     0.15323     0.60581   -0.759472  -0.000112309
1640    0.154211    0.606266    0.961211  -9.81793e-05
1650    0.155194    0.606724    0.731279  4.59783e-05
1660    0.153291    0.605838   -0.072477  0.00058073
1670    0.143579    0.601317     1.99524  0.000161968
1680    0.150052     0.60433     1.76497  -0.000300326
1690    0.149586    0.604113    -1.56345  1.76758e-05
1700    0.149699    0.604166    -1.33509  0.000177544
1710    0.146035     0.60246    0.617434  3.22975e-05
1720    0.149053    0.603865     1.19002  -0.000200169
1730    0.150038    0.604324    0.501234  0.000119933
1740    0.146654    0.602748     3.71626  0.000309686
1750    0.143845     0.60144     1.99423  0.000120523
1760    0.144243    0.601626    0.960876  -1.06789e-05
1770    0.144058     0.60154     1.87814  -4.00446e-05
1780    0.145044    0.601999     1.41883  -1.07296e-05
1790    0.144273     0.60164     4.28784  -0.000143012
1800    0.147905    0.603331   -0.304764  -0.000246019
1810    0.149193     0.60393     2.10684  -1.12422e-05
1820    0.148129    0.603435     0.95953  0.000416009
1830    0.140873    0.600057     2.68246  0.000254323
1840    0.143043    0.601067     2.56839  -0.000143403
1850    0.143741    0.601392     2.33688  -0.000143819
1860    0.145919    0.602406      1.3042  -0.00023294
1870      0.1484    0.603561     3.59882  9.27255e-05
1880    0.144065    0.601543     1.99154  0.000107379
1890    0.146252    0.602561     4.28694  3.9883e-06
1900    0.143985    0.601506     2.45129  0.000152558
1910    0.143201    0.601141     1.99053  0.000316946
1920    0.137646    0.598555     2.68122  3.3962e-05
1930    0.142522    0.600825     3.59905  -0.000458294
1940    0.146812    0.602822     3.48251  0.000243542
1950    0.137651    0.598557     3.82775  0.000423013
1960    0.138352    0.598884     2.56491  -0.000205124
1970    0.141753    0.600467     2.33453  7.98062e-05
1980    0.136756     0.59814    0.613959  1.93663e-05
1990    0.141366    0.600287     3.02276  -1.00955e-05
2000    0.136958    0.598234     3.02377  0.00029071
2010    0.135552     0.59758       5.894  0.000110574
2020    0.134746    0.597205     5.09081  -2.50891e-05
2030    0.136054    0.597814     4.05678  -0.000251935
2040    0.139785    0.599551     4.85975  -0.000131239
2050    0.138678    0.599036     3.94126  0.000323085
2060    0.133323    0.596543      3.4833  0.000414728
2070    0.130384    0.595174     2.91003  -0.000100984
2080    0.135343    0.597483      2.9088  -5.50695e-05
2090    0.131485    0.595687     4.97427  3.56838e-05
2100    0.134629    0.597151     5.54888  -0.000162179
2110    0.134729    0.597197     3.59725  -0.000132225
2120    0.137274    0.598382     1.41458  -0.000208908
2130    0.138907    0.599142     4.28582  2.02745e-05
2140    0.136868    0.598193       5.088  0.000357566
2150    0.131756    0.595813     6.00684  5.04479e-06
2160    0.136767    0.598146     4.28481  -0.000148083
2170    0.134717    0.597192     4.28503  0.000174433
2180    0.133279    0.596522      4.5153  3.61837e-05
2190    0.133994    0.596855      3.1366  -2.53327e-05
2200    0.133785    0.596758     2.10437  0.000268208
2210    0.128629    0.594358     4.05521   0.0001912
2220    0.129961    0.594977     3.48206  8.36216e-05
2230    0.126957    0.593579     5.54865  6.80521e-05
2240      0.1286    0.594344      3.7102  0.000239438
2250    0.122168     0.59135     3.48229  0.000161751
2260    0.125365    0.592838     3.25224  0.000225091
2270    0.117666    0.589254     5.31872  0.000646094
2280    0.112443    0.586823     3.82651  0.000241883
2290    0.112829    0.587002     4.85841  0.000508709
2300    0.102269    0.582086     6.81216  0.000493658
2310    0.102956    0.582406     5.77814  -6.87309e-05
2320    0.103644    0.582726     4.05544  -0.000320096
2330    0.109358    0.585386     5.20331  2.51915e-05
2340     0.10314    0.582492      7.7292  0.000654109
2350   0.0962754    0.579296     4.85863  0.000372105
2360   0.0956978    0.579027     3.82461  -3.68558e-05
2370   0.0970125    0.579639     4.74389  -0.000321255
2380    0.102123    0.582018     4.16996  -0.00032183
2390    0.103449    0.582636     5.77657  8.89868e-05
2400    0.100343     0.58119     4.16962  7.30585e-05
2410    0.101988    0.581955     6.58066  0.000168889
2420   0.0969654    0.579617     5.54877  0.000168889
2430   0.0986102    0.580383     4.05465  0.000169779
2440   0.0935698    0.578036     5.31738  0.000456872
2450   0.0894727    0.576129     5.43268  0.000106803
2460   0.0914337    0.577042     3.70975  -0.000468184
2470   0.0988364    0.580488      3.8236  -3.67466e-05
2480   0.0921687    0.577384     4.39854  0.000250814
2490   0.0938201    0.578153     5.20039  -0.00010115
2500   0.0941917    0.578326     5.66127  -5.32832e-05
2510   0.0948858    0.578649     4.74098  0.000413448
2520   0.0859227    0.574477     3.36485  0.000333283
2530   0.0882201    0.575546     4.74131  -0.000181584
2540   0.0895544    0.576167     3.24989  -0.000101291
2550   0.0902459    0.576489      2.4458  0.000594309
2560   0.0776682    0.570634     4.28346  0.00027089
2570   0.0848281    0.573967     3.59299  -1.91417e-05
2580   0.0780511    0.570812     5.20107   0.0008086
2590   0.0686561    0.566439     2.44714  -0.000247082
2600   0.0829927    0.573113      4.9708  -0.000132072
2610   0.0712976    0.567668     5.88997  0.000583739
2620   0.0713179    0.567678     5.43044  3.06014e-05
2630   0.0706855    0.567383     5.20129  7.9691e-05
2640   0.0697241    0.566936      4.0532  0.000178203
2650   0.0671215    0.565724     2.67528  0.000145784
2660   0.0668084    0.565578     5.88941  6.41983e-05
2670   0.0658375    0.565126     4.28201  -0.000100177
2680    0.068812    0.566511     3.24933  -0.000297849
2690   0.0717945      0.5679      3.7065  -0.000199695
2700   0.0728059     0.56837     4.27977  0.00017951
2710   0.0682043    0.566228     4.28167  0.000262325
2720   0.0675594    0.565928     3.59243  0.000412398
2730   0.0599563    0.562389     1.41099  0.000379876
2740   0.0599618    0.562391     3.24765  0.000231967
2750    0.055317    0.560229     3.36194  3.27073e-05
2760   0.0593077    0.562087     5.08475  -4.98774e-05
2770   0.0563145    0.560693     3.47679  0.00041647
2780   0.0509783    0.558209     3.13302  0.000166955
2790   0.0529754    0.559139      6.3468  0.000234828
2800   0.0462817    0.556023     4.28145  0.000100894
2810   0.0509575      0.5582     4.73929  -0.00018312
2820   0.0499441    0.557728      3.8208  -0.000100042
2830   0.0529584    0.559131     2.78688  -3.27906e-05
2840   0.0505999    0.558033     3.24742  -0.000235347
2850   0.0576653    0.561322    0.604541  7.68155e-07
2860   0.0505846    0.558026     3.47534  0.00035441
2870   0.0505771    0.558022     3.13133  1.76566e-05
2880   0.0502314    0.557862     3.93576  0.000305595
2890   0.0444652    0.555177     2.78778  0.000221288
2900   0.0458057    0.555801     3.47578  8.65474e-05
2910   0.0427343    0.554371     3.82124  1.43405e-06
2920    0.045777    0.555788     5.08229  6.99857e-05
2930   0.0413346     0.55372      2.3278  -0.00013501
2940   0.0484772    0.557045     3.93274  -0.000288278
2950   0.0471001    0.556404     2.67057  0.000462865
2960   0.0392199    0.552735     6.23083  0.000206807
2970    0.042964    0.554478     3.93352  -0.000151962
2980   0.0422591     0.55415     3.35959  -0.00016992
2990   0.0463624     0.55606     3.35869  -4.96596e-05
3000   0.0432523    0.554613     4.04781  1.37649e-06
3010   0.0463348    0.556048     3.58817  -0.000170681
3020    0.046666    0.556202     4.62153   0.0003469
3030   0.0393968    0.552818     3.58974  0.000191641
3040   0.0428331    0.554417     4.85045  -0.00011889
3050   0.0417746    0.553925     4.50734  0.000123358
3060    0.040366    0.553269     5.08128  0.000332176
3070   0.0351311    0.550832     4.16199  0.000211045
3080   0.0361451    0.551304      6.9176  5.52934e-05
3090   0.0340253    0.550317      4.3917  0.000631107
3100   0.0235229    0.545428     5.99989  0.000440099
3110   0.0252233     0.54622     6.68756  0.000109729
3120   0.0213283    0.544406      5.6551  0.000144683
3130   0.0223296    0.544873     7.26093  0.000356113
3140   0.0142061    0.541091     4.39238  0.000356484
3150   0.0151999    0.541554     5.54036  -6.43136e-05
3160   0.0154924     0.54169     5.31054  5.97942e-06
3170   0.0150803    0.541498      5.0815  -1.17091e-05
3180   0.0157265    0.541799     4.39148  0.000253528
3190   0.0100098    0.539137     4.85168  0.000360056
3200  0.00852542    0.538446      4.2773  7.77192e-05
3210  0.00845539    0.538414     6.34322  9.57982e-05
3220  0.00660946    0.537555     5.19535  0.000291588
3230  0.00262363    0.535699     3.70415  -0.00022424
3240   0.0110943    0.539642     3.47231  -9.94216e-06
3250  0.00282247    0.535792     2.55471  0.000667655
3260  -0.00225885    0.533426     2.09608  -9.98698e-06
3270  0.00302221    0.535885     4.50532  -9.88519e-05
3280  -0.000281812    0.534346     5.07892  -8.18292e-05
3290   0.0046588    0.536646     3.93061  -0.000189298
3300  0.00350415    0.536109     4.61951  0.000277651
3310  -0.000894219    0.534061     3.24271  7.99663e-05
3320  0.00190482    0.535364     2.66878  -8.1746e-05
3330  0.000740701    0.534822     4.61984  0.000188914
3340  -0.00187346    0.533606     4.16065  0.000334244
3350  -0.00594417    0.531711     3.70134  -2.75602e-05
3360  -0.00132225    0.533862      4.2755  -0.000335723
3370  0.000770278    0.534836      3.9315  -4.59017e-05
3380  -0.000404217    0.534289     4.15964  0.000354448
3390  -0.00631869    0.531536     4.16031  0.000245718
3400  -0.00531858    0.532002     6.11261  -0.000465598
3410  0.00299328    0.535871      4.8491  -0.000338379
3420  0.00144901    0.535152     3.81598  0.00015467
3430  -0.000100126    0.534431      5.4227  0.000100094
3440  -0.000552869     0.53422     4.27551  2.6952e-05
3450  -0.000639167     0.53418     5.53688  8.65538e-06
3460  -0.000725977     0.53414     5.76626  0.000359025
3470  -0.00781968    0.530837     4.84955  0.000211833
3480  -0.00496263    0.532167      7.2588  -0.000119677
3490  -0.00542613    0.531952     4.38935  6.4941e-05
3500  -0.00626145    0.531563     2.78307  0.000250654
3510  -0.0104392    0.529618     3.81553  0.000418416
3520  -0.0146298    0.527667     5.65263  8.47037e-05
3530  -0.0121333    0.528829     5.19333  0.000234604
3540  -0.0193219    0.525483     5.19355  -8.10483e-06
3550  -0.0119712    0.528905     3.47074  -0.000250078
3560  -0.0143203    0.527811     3.35689  1.05695e-05
3570  -0.0121826    0.528806     3.81586  -0.00012033
3580  -0.0119137    0.528932       3.356  -0.000102072
3590  -0.0101411    0.529757     3.35577  0.000104665
3600   -0.014007    0.527957     2.66743  0.000255315
3610  -0.0152474     0.52738     2.55381  -0.00038535
3620  -0.00629999    0.531545     2.20723  -0.000102232
3630  -0.0132028    0.528331     3.70045  0.000218049
3640   -0.010661    0.529515     4.27315  0.000162589
3650  -0.0164546    0.526818     2.66766  0.000219426
3660  -0.0150495    0.527472     1.97786  -0.000140733
3670  -0.0136399    0.528128     2.43739  -8.40251e-05
3680   -0.013369    0.528254     1.63397  -0.000122539
3690  -0.0111891    0.529269     4.15886  -8.455e-05
3700   -0.011678    0.529041     4.15886  -0.000333911
3710  -0.00451091    0.532378     3.69877  -0.000161795
3720  -0.00844207    0.530548     3.23957  0.000316927
3730  -0.0108494    0.529427     3.35465  6.79947e-05
3740  -0.00980196    0.529915     2.89557  -0.000143448
3750  -0.00798049    0.530763     1.17399   6.843e-05
3760  -0.0111706    0.529278     1.17444  0.000145579
3770  -0.0108921    0.529407     2.55191  0.000146316
3780  -0.0140969    0.527915     3.81474  4.95316e-05
3790  -0.0118827    0.528946       1.519  -0.000105228
3800  -0.0119923    0.528895     2.09294  -0.000416988
3810  -0.00354295    0.532828       1.862  0.000205834
3820   -0.016109    0.526979     1.40471  0.000360927
3830  -0.0107615    0.529468    0.944283  -0.000261947
3840  -0.0108701    0.529417     1.74737  0.000461181
3850  -0.0199851    0.525174     1.86312  -0.000145996
3860  -0.00795015    0.530777     2.09215  -0.00041976
3870  -0.0115899    0.529082    0.713902  3.01146e-05
3880  -0.00855244    0.530496     1.51799  3.0774e-05
3890  -0.0122054    0.528796     1.40303  1.05824e-05
3900  -0.00876409    0.530398     2.32085  9.02797e-05
3910   -0.014011    0.527955    0.829092  0.000268086
3920  -0.0141258    0.527902     0.37046  9.08815e-05
3930  -0.0158286    0.527109    0.370684  0.000250014
3940  -0.0191261    0.525574    0.485315  -2.79443e-05
3950  -0.0152697    0.527369     1.05835  -4.73614e-05
3960  -0.0181789    0.526015    0.599832  3.17919e-05
3970  -0.0159055    0.527073     1.17287  -0.000107699
3980  -0.0160249    0.527018    0.598936  1.19587e-05
3990  -0.0161447    0.526962    0.369339  0.000152487
4000  -0.0190746    0.525598   -0.203474  -2.8162e-05
4010  -0.0155815    0.527224     1.28705  -7.59261e-06
4020  -0.0189228    0.525669      1.5171  7.25016e-05
4030  -0.0170315    0.526549     1.51799  -0.000169267
4040  -0.0155374    0.527245     0.94305  -0.000351996
4050  -0.00999159    0.529826    0.597702  1.2042e-05
4060  -0.0157783    0.527133     1.05757  0.000518747
4070  -0.0203665    0.524997     1.05891  0.000113832
4080  -0.0180549    0.526073    -0.20426  -0.000251941
4090  -0.0153277    0.527342    0.943274  -2.82644e-05
4100  -0.0174896    0.526336    0.943722  0.000196084
4110  -0.0192494    0.525517    0.828868  -0.000253727
4120  -0.0124151    0.528698     1.28716  -0.000130759
4130  -0.0166342    0.526734     1.05813  0.000196596
4140   -0.016347    0.526868    0.253924  -0.000172852
4150  -0.0131772    0.528343    0.712333  3.30211e-05
4160  -0.0170074     0.52656    0.483297  0.000528222
4170  -0.0237416    0.523425    0.713117  0.000529745
4180  -0.0276023    0.521628   -0.205941  -0.000214259
4190  -0.0194564     0.52542  -0.0918715  0.00011823
4200   -0.029967    0.520527    0.483633  0.000366567
4210  -0.0267878    0.522007    0.712108  -0.000172621
4220  -0.0265145    0.522135    -0.20583  -8.99852e-05
4230  -0.0249881    0.522845    -2.04327  0.000286082
4240  -0.0322362    0.519471    -1.69792  3.50312e-05
4250  -0.0256887    0.522519   -0.322029  -0.000215379
4260  -0.0279286    0.521476    -2.61754  9.82885e-05
4270  -0.0276545    0.521604    -3.88083  7.78216e-05
4280   -0.029485    0.520752    -3.19193  0.000288784
4290  -0.0334301    0.518915    -1.46889  5.72331e-05
4300  -0.0306297    0.520219    -3.07752  -5.44153e-06
4310  -0.0333213    0.518966    -1.47035  0.000375639
4320  -0.0381425    0.516721   -0.206614  -9.04335e-05
4330  -0.0315126    0.519808    -2.84736  -0.000132295
4340  -0.0354965    0.517953   -0.781446  1.54736e-05
4350  -0.0318221    0.519664    -0.43722  0.000101618
4360  -0.0375289    0.517007    0.368105  -4.85586e-05
4370  -0.0308509    0.520116   -0.666368  -9.0491e-05
4380  -0.0357191     0.51785    -2.04383  0.000380363
4390  -0.0384582    0.516575    -2.27377  5.93841e-05
4400  -0.0369068    0.517297   -0.896636  5.99794e-05
4410  -0.0396578    0.516016   -0.551401  -4.93582e-06
4420   -0.036808    0.517343    0.136828  -0.000199003
4430  -0.0356777    0.517869    0.479933  0.000319878
4440  -0.0432056    0.514364   -0.207062  0.000341952
4450  -0.0425167    0.514685   -0.436883  -0.000134235
4460  -0.0405209    0.515614    -1.70006  8.31353e-05
4470  -0.0441795    0.513911   -0.896524  0.000213804
4480   -0.044797    0.513624    -1.47023  -0.000134792
4490  -0.0414836    0.515166   -0.208183  0.000346727
4500  -0.0517315    0.510395    0.367321  0.00034674
4510  -0.0484184    0.511938   -0.207287  8.55615e-05
4520  -0.0534428    0.509599    -0.66603  8.51134e-05
4530  -0.0501207    0.511145   -0.436322  -0.000509246
4540  -0.0432578     0.51434    -2.04462  -4.68235e-05
4550  -0.0491842    0.511581   -0.322253  0.000549489
4560  -0.0542476    0.509224      1.5153  0.000307663
4570  -0.0553375    0.508717    -1.23997  -0.000357348
4580  -0.0471006    0.512551   -0.322589  -0.000112968
4590  -0.0530781    0.509769   -0.896188  -0.000137001
4600  -0.0443606    0.513827    -0.66704  -0.000605275
4610  -0.0409726    0.515404   -0.438341  0.000108179
4620  -0.0465242     0.51282   -0.323038  0.000399242
4630  -0.0489575    0.511687    0.251234  0.000266243
4640  -0.0518491    0.510341     1.16951  -0.000430516
4650  -0.0403471    0.515695    0.249327  -0.000227857
4660  -0.0472919    0.512462   -0.437107  8.58432e-05
4670   -0.042064    0.514896   -0.437891  -9.37495e-05
4680  -0.0454169    0.513335    0.595348  0.000131841
4690  -0.0447008    0.513668    0.595011  0.00026904
4700  -0.0507977     0.51083   -0.437331  0.000178357
4710   -0.048268    0.512008    0.136716  -0.000367444
4720  -0.0434489    0.514251    0.709866  0.000202582
4730  -0.0523196    0.510122     0.36676  4.17724e-05
4740  -0.0442843    0.513862     0.13593  -0.000369262
4750  -0.0449344     0.51356   -0.667825  -7.27706e-05
4760  -0.0428289     0.51454    0.135706  -0.000395139
4770  -0.0370316    0.517239    -1.12702  -0.000280948
4780    -0.03721    0.517156      1.1694  -9.76933e-05
4790  -0.0350777    0.518148     0.59546  -0.000236794
4800  -0.0324741     0.51936    0.136268  -9.8455e-05
4810  -0.0331086    0.519065   0.0207403  -9.914e-05
4820  -0.0304913    0.520283    -0.43834  -0.00012252
4830  -0.0306582    0.520206    0.709641  -0.000683301
4840  -0.0168252    0.526645    0.823935  -0.000614455
4850  -0.0183691    0.525926   -0.898206  8.4422e-05
4860  -0.0185137    0.525859   -0.668497  1.45003e-05
4870  -0.0186591    0.525791    -1.35717  -5.59974e-05
4880  -0.0173937     0.52638    -1.12791  -7.96397e-05
4890  -0.0170663    0.526533    -0.32371  -5.64521e-05
4900  -0.0162647    0.526906   0.0205161  -0.000364173
4910  -0.00978289    0.529923    -0.55454  -0.000270205
4920  -0.0108606    0.529422    -1.24288  -1.07616e-05
4930  -0.00956765    0.530024    -1.81659  -0.000343744
4940  -0.0039857    0.532622    -1.58733  -0.000606952
4950  0.00257139    0.535675    -2.04652  0.000155253
4960  -0.00709076    0.531177    -1.24243  0.000273919
4970  -0.00290698    0.533124    -2.50639  0.000108506
4980  -0.00926088    0.530167    -1.58711  0.000252114
4990  -0.00794925    0.530777   -0.783239  0.000395721
