Time   Number   
ps   
0           7           9
10           6           8
20           6           6
30           5           7
40           5          11
50           6           8
60           4           6
70           3           9
80           4          10
90           6          10
100           6          10
110           7           9
120           6           8
130           6          10
140           7           9
150           8           8
160           7           9
170           4          10
180           8           8
190           7          11
200           6           8
210           6          12
220           5          11
230           6          10
240           4           8
250           5           7
260           7           9
270           7           9
280           6          10
290           6          12
300           7           7
310           7           9
320           6          10
330           7          13
340           6           8
350           7           7
360           6          10
370           6           8
380           5           9
390           5           7
400           5           9
410           7           7
420           6           8
430           8           8
440           8          12
450           8          12
460           8          10
470           5          13
480           8          12
490           7           7
500           8          10
510           8          10
520           9           9
530           8          12
540           6          10
550           9          11
560           8          14
570           9          13
580           9          13
590           7          11
600           6          10
610           7           9
620           6          10
630           8           8
640           8          10
650           6          10
660           5           9
670           9           9
680           8          12
690           6          12
700           5           9
710           8           8
720           9          11
730           9           9
740           7          11
750           7           9
760           7           9
770           8          12
780           9          13
790           7          11
800           7          11
810           7           9
820          10          14
830           8          18
840           8          12
850          10          14
860           8          10
870           8          12
880           9          15
890          10          14
900          10          16
910          10          10
920           8          10
930           7          13
940           7          13
950           6           8
960           8          10
970           8          14
980           6           6
990           9          13
1000           9          11
1010           8          12
1020           7          15
1030           8          12
1040           8          10
1050           9          11
1060           9          11
1070           7          13
1080          10          12
1090          10          12
1100           7          15
1110          10          12
1120           9          13
1130          10          12
1140           9          13
1150          11          13
1160          11          13
1170          12          16
1180          10          14
1190           6          10
1200          10          10
1210           9          13
1220           9          13
1230          11          11
1240          10          12
1250           8          14
1260           9          15
1270           8          12
1280           8          14
1290           7          11
1300           7          11
1310          10          12
1320           8          10
1330           8          12
1340           9           9
1350           8          10
1360           9          13
1370           9          13
1380           9           9
1390          10          12
1400          11          13
1410           9          11
1420          11          13
1430          11          17
1440          13          13
1450          12          14
1460          13          13
1470          13          15
1480          10          12
1490          11          17
1500          11          13
1510          11          15
1520          10          16
1530          11          15
1540          11          13
1550          12          14
1560           9          11
1570          14          14
1580          11          11
1590          10          12
1600           9          11
1610           9          13
1620          10          10
1630           9           9
1640           8          10
1650           9           9
1660          10          10
1670           9           9
1680           8          10
1690          10          12
1700           9          13
1710           9          11
1720           8          16
1730          10          12
1740           9          15
1750          10          10
1760          10          10
1770          10          10
1780           6           8
1790          11          11
1800           7           9
1810           8          12
1820          10          10
1830           9           9
1840           8           8
1850           9           9
1860           9          13
1870           8           8
1880           7           9
1890           8          14
1900           9          15
1910          10          10
1920          12          12
1930           8          10
1940           9          11
1950          10          10
1960          11          13
1970           8          12
1980           7          13
1990           7           9
2000           9          11
2010           9          11
2020           8          12
2030          11          13
2040           7          13
2050          11          13
2060          10          10
2070           9          11
2080          11          17
2090          10          14
2100           9          13
2110           9          15
2120           9          11
2130           7          13
2140          10          12
2150           8          10
2160          11          15
2170          10          12
2180          11          11
2190           8          14
2200          10          10
2210          10          12
2220          10          12
2230          10          14
2240          10          10
2250           9          11
2260          11          11
2270          11          15
2280          11          11
2290           7          19
2300          10          12
2310           8          10
2320          10          12
2330           8          12
2340          11          13
2350           9          11
2360           8          12
2370          11          15
2380           9          15
2390          10          12
2400          11          13
2410          10          14
2420          10          12
2430          10          14
2440           8          16
2450          12          14
2460          11          11
2470           7          13
2480          11          17
2490          10          12
2500           9          11
2510           9          11
2520          10          10
2530           8          12
2540          11          15
2550           9          13
2560          11          13
2570          10          16
2580          10          14
2590          13          19
2600          11          13
2610           8          12
2620           8          16
2630           8          14
2640           9          15
2650          10          12
2660           9           9
2670          10          12
2680          10          10
2690           9          13
2700           9          15
2710          10          14
2720          11          17
2730          10          16
2740          10          18
2750           8          10
2760           8          14
2770          10          12
2780          10          14
2790          10          10
2800           9           9
2810           8           8
2820           8           8
2830           9          11
2840          11          13
2850          10          12
2860           8          12
2870          10          14
2880           9           9
2890           8          10
2900           8           8
2910           9          15
2920           5           9
2930           6          12
2940           7           9
2950           9          13
2960           7           9
2970           8           8
2980           7          15
2990           9          11
3000           9          13
3010           7          11
3020           9          11
3030           8          10
3040           9          11
3050           7          15
3060           8           8
3070           6          10
3080           8           8
3090           9          11
3100           9          11
3110           9           9
3120           9          11
3130           8          12
3140           7          11
3150           7           7
3160           7          13
3170           8          12
3180          10          14
3190           9          11
3200           9           9
3210           8          10
3220          11          13
3230          10          14
3240          10          10
3250          11          13
3260           9          11
3270          11          11
3280           9          13
3290          12          12
3300           9          11
3310          10          12
3320          11          13
3330          11          15
3340           9           9
3350          11          11
3360          10          10
3370           8          12
3380          10          12
3390           9          11
3400           9          11
3410           8          12
3420           7           9
3430           9          13
3440           9           9
3450          10          14
3460           8          12
3470          10          10
3480          10          10
3490           8          10
3500          11          13
3510           7           9
3520           7          13
3530           8          12
3540           9           9
3550           6           8
3560           7           7
3570          10          14
3580          10          14
3590          10          12
3600          11          13
3610           7          15
3620           9          13
3630           9          11
3640          13          15
3650          12          12
3660           9          17
3670           6           8
3680          10          12
3690           9          11
3700           8          10
3710          10          12
3720           8          10
3730           9          11
3740           9           9
3750           8          10
3760           9          11
3770           8          12
3780          10          10
3790           8          10
3800          11          13
3810           8          10
3820           9          11
3830           6          12
3840          10          12
3850           9          11
3860          10          10
3870           8          12
3880           9          13
3890           8          12
3900           9          11
3910           8          12
3920           8          10
3930           7          13
3940          10          14
3950           7           9
3960           6           8
3970           7           9
3980           7           9
3990           8          10
4000           8          12
4010           8           8
4020           6          10
4030           7           9
4040           8           8
4050           7          13
4060          10          12
4070           9          11
4080           8          10
4090           8          12
4100           8          12
4110           9          13
4120           9           9
4130          10          12
4140           9           9
4150           8          14
4160           7           7
4170           9          11
4180          10          12
4190           9           9
4200           8           8
4210          10          10
4220          11          13
4230          10          10
4240          10          12
4250          10          10
4260           9           9
4270           9          11
4280           8          10
4290          10          10
4300           9          11
4310          11          11
4320           8          12
4330           7           7
4340           7           7
4350           9          13
4360           9           9
4370           8           8
4380           9          11
4390           8           8
4400           9          11
4410           9          11
4420           6           8
4430           6          12
4440           8          10
4450           9           9
4460           9           9
4470           8          10
4480          10          10
4490           7           9
4500           5          13
4510           8           8
4520           9          11
4530          10          12
4540           7           7
4550           9          13
4560           9          11
4570          10          10
4580          10          10
4590           9           9
4600           8          10
4610           9           9
4620           7           9
4630           7           9
4640           6           8
4650           6           8
4660           9           9
4670           9           9
4680           9           9
4690           8           8
4700           8          12
4710           8          10
4720          10          12
4730           8          12
4740           9           9
4750           7           9
4760           6          10
4770           7           9
4780           9          11
4790           8          10
4800           6          12
4810           8          12
4820           8          14
4830           7          11
4840           8          10
4850           9          11
4860           6           8
4870           9           9
4880          10          10
4890           9           9
4900          10          10
4910           8          12
4920           9          11
4930           8           8
4940           8           8
4950          10          10
4960           8          10
4970           8           8
4980           8          10
4990          11          11
5000          10          10
5010           8           8
5020           6          10
5030           9           9
5040           8          10
5050           7           7
5060           8           8
5070           9           9
5080           8          10
5090           9          11
5100           7           9
5110           8          12
5120           9           9
5130           8          10
5140           8          10
5150           7           9
5160           5           9
5170           5           7
5180           5           7
5190           6           8
5200           4          10
5210           6           8
5220           9           9
5230           7           9
5240           9           9
5250           9           9
5260           8          10
5270           8           8
5280           5           7
5290           8          12
5300           8          10
5310           8          12
5320           8           8
5330           8          10
5340           8           8
5350           9          11
5360           8           8
5370           9          11
5380           8           8
5390          10          12
5400           8          10
5410          10          12
5420          11          11
5430          10          14
5440           8           8
5450          10          12
5460           7           7
5470           9           9
5480          10          10
5490           7          13
5500           8          10
5510           7           9
5520           6          10
5530           8          10
5540           8           8
5550           6           8
5560           4          10
5570           6           6
5580           5           9
5590           7          11
5600           8          10
5610           6          10
5620           8           8
5630           8          10
5640           7           7
5650           8           8
5660           7           9
5670           6          10
5680           7          13
5690           8           8
5700          10          10
5710           8           8
5720          10          10
5730           8          10
5740           8           8
5750           9           9
5760           8          10
5770           6          12
5780           8          12
5790           6           8
5800           7           9
5810           9           9
5820           8          10
5830           6           8
5840           6          10
5850           5           9
5860           6           6
5870           6           8
5880           7          11
5890           6           6
5900           5           9
5910           7          11
5920           8          10
5930           8          12
5940           7           7
5950           6           8
5960           7           7
5970           4           8
5980           5          11
5990           5           5
6000           7           7
6010           6           8
6020           5          11
6030           6          10
6040           6           8
6050           6          10
6060           6           8
6070           8          14
6080           7           9
6090           4           8
6100           5           7
6110           7           9
6120           8           8
6130           6           8
6140           7          13
6150           7           9
6160           7           9
6170           7          13
6180           6           8
6190           8          10
6200           6           8
6210           8          10
6220           7          11
6230           9           9
6240           6           8
6250           6          10
6260           8           8
6270           6          10
6280          10          10
6290           6          14
6300           6           8
6310           7           9
6320           6          12
6330           8          10
6340           9           9
6350           9          11
6360           8          10
6370           8           8
6380           7           9
6390           7          11
6400           8          10
6410           7           9
6420           8           8
6430           8           8
6440           8          14
6450           4           6
6460           9           9
6470           9          11
6480           9          15
6490           9           9
6500           9          13
6510           8          12
6520           8          10
6530          11          11
6540           9          11
6550          10          10
6560          10          12
6570          10          14
6580           9          11
6590          10          14
6600           7           9
6610          11          11
6620           7          11
6630           9           9
6640           6          12
6650          11          11
6660          12          12
6670           6           8
6680           9          11
6690           9          13
6700           9          13
6710          11          11
6720          10          14
6730          10          14
6740          10          12
6750          10          10
6760           9          13
6770          11          13
6780          10          12
6790          11          15
6800          10          16
6810          12          16
6820          10          10
6830          11          11
6840           7          13
6850          10          12
6860           8          10
6870          10          14
6880           7          17
6890          10          12
6900          10          14
6910          11          13
6920          11          13
6930           9          11
6940          10          12
6950          12          14
6960          13          13
6970          11          15
6980          14          14
6990          11          13
7000           6          14
7010           6           8
7020           8          12
7030           9          13
7040           6           8
7050           9          11
7060          11          13
7070           8          16
7080          11          13
7090           9          13
7100          10          18
7110          12          16
7120          12          12
7130          10          14
7140          12          16
7150          11          13
7160          11          13
7170          13          13
7180          11          13
7190          12          12
7200          11          15
7210          12          16
7220          13          13
7230          12          14
7240          10          14
7250          12          14
7260          12          16
7270          12          14
7280          13          13
7290          13          15
7300          11          15
7310          12          16
7320          11          13
7330          11          13
7340          12          12
7350           9          17
7360          13          13
7370          11          15
7380          11          13
7390          12          16
7400          12          12
7410          10          16
7420          11          13
7430          11          15
7440          12          14
7450          12          14
7460          11          11
7470          12          14
7480          12          14
7490          12          14
7500          11          13
7510          13          13
7520          13          15
7530           9          13
7540          12          18
7550          12          14
7560          11          15
7570          12          16
7580          10          18
7590          12          12
7600          12          12
7610          13          13
7620          12          18
7630          12          18
7640          11          13
7650          12          18
7660          12          18
7670          10          18
7680          12          16
7690          10          12
7700           9          15
7710          12          14
7720          12          14
7730          11          17
7740          12          14
7750          12          12
7760           9          13
7770          10          12
7780           9          13
7790          11          11
7800          10          10
7810          11          11
7820          11          11
7830          10          12
7840           9          11
7850           9           9
7860           9          11
7870           8          10
7880          10          14
7890          10          10
7900           9           9
7910          10          10
7920          10          10
7930           8          12
7940           9          11
7950          10          12
7960           9          13
7970          10          12
7980           8          14
7990           9          13
8000          10          12
8010          11          11
8020          10          12
8030          11          11
8040           7          11
8050          10          12
8060          11          13
8070           7          11
8080          11          11
8090           9          11
8100          10          14
8110           9          11
8120           7          13
8130          10          12
8140           9           9
8150          10          12
8160           9          13
8170          11          11
8180          10          10
8190          10          12
8200          10          12
8210           9          13
8220          10          12
8230          10          10
8240           8           8
8250          10          10
8260           9           9
8270           9          15
8280           8          12
8290           8          10
8300           8          14
8310           9          13
8320           8          14
8330          11          13
8340           9          13
8350           8          12
8360          11          11
8370          10          12
8380          12          16
8390          11          15
8400          13          13
8410          12          14
8420          11          13
8430          13          15
8440           9          15
8450          13          17
8460          10          16
8470          12          12
8480          12          14
8490          14          14
8500          10          16
8510          11          15
8520          13          13
8530          11          13
8540          13          15
8550          13          19
8560          12          14
8570          10          14
8580          12          12
8590          12          12
8600          11          13
8610           9           9
8620          11          15
8630          12          14
8640          11          15
8650           8          12
8660          14          16
8670          12          16
8680          12          14
8690          12          18
8700          12          14
8710          12          14
8720          12          14
8730          13          15
8740          14          14
8750          11          11
8760          11          15
8770          12          14
8780          12          16
8790          11          13
8800          12          14
8810          11          17
8820          12          14
8830          11          13
8840           9          13
8850          11          13
8860          10          10
8870          11          13
8880          10          14
8890          10          14
8900          10          10
8910          10          12
8920          10          12
8930          14          14
8940          11          11
8950          10          14
8960          10          12
8970          12          16
8980          11          15
8990          11          17
9000          14          16
9010          12          16
9020          12          12
9030          10          14
9040          11          17
9050           9          15
9060          11          13
9070          10          14
9080          10          10
9090          11          15
9100          12          14
9110          10          14
9120          11          15
9130          13          15
9140          10          16
9150          12          14
9160          12          16
9170          11          13
9180          11          11
9190          12          12
9200          12          16
9210          11          13
9220          13          17
9230          11          13
9240          12          14
9250          12          12
9260          10          10
9270           9          11
9280           8          14
9290           9          15
9300          11          17
9310          10          16
9320          11          13
9330          12          16
9340          11          15
9350          10          10
9360          11          13
9370           9          15
9380          10          12
9390           8          12
9400          10          10
9410          10          12
9420           8          10
9430           8          10
9440          10          12
9450          10          14
9460           8          12
9470           8          10
9480          10          12
9490           8          14
9500           8          12
9510           9           9
9520           8          10
9530          10          12
9540           6           8
9550           7          11
9560           9           9
9570           6          10
9580           7          13
9590           7           9
9600           9           9
9610           7           7
9620           8           8
9630           9          11
9640           9           9
9650           8          10
9660           8          12
9670           8          12
9680           8          12
9690           8          10
9700           7           7
9710           8          10
9720           7          11
9730           7           9
9740           7          11
9750           9           9
9760           7           9
9770           7           7
9780           8           8
9790           9           9
9800           7           7
9810           8          12
9820           5           9
9830           7           7
9840           8          10
9850           9          11
9860           9           9
9870           6          14
9880           8          10
9890           7          11
9900           7           9
9910           7          11
9920           8           8
9930           7           9
9940           7           7
9950           7           7
9960           7          11
9970           6           6
9980           7          11
9990           7           7
10000           6          10
