Time   C(t)   
ps   
0           1           1  5.10369e-10   0.0248432
10    0.754606    0.865004    0.298635   0.0136124
20    0.727753    0.850231    0.425176  0.00238147
30    0.706976    0.838802   -0.308034  0.00194494
40    0.688854    0.828833    0.520719  0.00156673
50    0.675642    0.821564    0.407724  0.00143493
60    0.660156    0.813045  -0.00633325  0.00126529
70    0.650336    0.807643   -0.134399   0.0011099
80    0.637958    0.800833    0.168313  0.00120482
90     0.62624    0.794387   -0.437329  0.00107729
100    0.616412     0.78898   -0.660767  0.000919402
110    0.607852    0.784271   -0.565426  0.000898355
120    0.598445    0.779096   -0.438029  0.000881502
130    0.590222    0.774573    0.199202  0.000727016
140    0.583904    0.771097    0.246406  0.000597996
150    0.578262    0.767993    0.452516  0.000695527
160    0.569994    0.763445    -1.17262  0.000757188
170    0.563118    0.759662   -0.471298  0.000604716
180    0.557899    0.756792   -0.392195  0.000571448
190    0.551689    0.753375   -0.169613  0.000612998
200    0.545639    0.750047   -0.918236  0.000504392
210    0.541601    0.747826    0.339693  0.000599572
220    0.533648     0.74345    0.706733  0.000644058
230     0.52872    0.740739    0.387783  0.000546938
240    0.522709    0.737433    0.913326  0.000507423
250    0.518571    0.735157    0.658534  0.000402531
260    0.514659    0.733004   -0.186613  0.000467288
270    0.509226    0.730015    0.801685  0.000462416
280     0.50541    0.727916   0.0367625  0.000486757
290    0.499491     0.72466    0.530966  0.000518242
300    0.495045    0.722214     1.43874  0.000372009
310     0.49205    0.720567     1.80451  0.000419568
320    0.486654    0.717598     1.24749  0.00039397
330    0.484171    0.716232     1.07169  0.000356933
340    0.479515    0.713671    0.816553  0.000417618
350    0.475819    0.711637     1.18269  0.000307004
360    0.473375    0.710293    0.975009  0.000347388
370    0.468871    0.707815     0.89575  0.000381865
380    0.465738    0.706092    0.560718  0.000356151
390    0.461748    0.703897    0.114341  0.000390747
400    0.457923    0.701793    0.513094  0.000418198
410    0.453384    0.699296    0.305832  0.000401242
420    0.449898    0.697378    0.496919  0.00027651
430    0.447854    0.696253  -0.0450642  0.000250593
440    0.444886    0.694621    0.161498  0.000345844
450    0.440937    0.692448    0.257477  0.00032867
460    0.438313    0.691005    0.225531  0.000240397
470    0.436129    0.689803     0.27261  0.000292936
480    0.432454    0.687782    0.846508  0.00030688
490    0.429991    0.686427    0.829881  0.000312071
500    0.426213    0.684348    0.224768  0.000349896
510    0.422993    0.682577    0.750467  0.000246206
520    0.421289    0.681639     1.37102  0.000225912
530    0.418475    0.680092      1.8652  0.000323518
540    0.414818     0.67808    0.670305  0.000213392
550    0.414207    0.677744     1.62533  0.000193022
560    0.410958    0.675956     1.49828  0.000329775
570    0.407612    0.674115     2.18374  0.000271945
580    0.405519    0.672964      1.1316  0.000277112
590     0.40207    0.671067     1.09992  0.000244515
600    0.400629    0.670274     1.03638  0.000150241
610    0.399065    0.669414      1.5614  0.000152056
620    0.397588    0.668601     1.83194  0.000286712
630     0.39333    0.666259     1.49811  0.000275108
640    0.392086    0.665574    0.764977  0.000101908
650    0.391292    0.665138     1.91167  0.000130934
660    0.389467    0.664134    0.908051  0.000228155
670    0.386729    0.662628     1.29052  0.000166364
680     0.38614    0.662303     1.28993  0.000153211
690    0.383665    0.660942    0.860038  0.000355659
700    0.379026     0.65839    0.302424  0.00023147
710    0.379036    0.658395    0.556859  8.74579e-05
720    0.377277    0.657428    0.493091  0.00021265
730    0.374783    0.656055    0.779799  0.000214574
740    0.372986    0.655067     1.62397  0.000218138
750     0.37042    0.653655     1.81525  0.000244613
760    0.368093    0.652376    0.938706  0.000194621
770    0.366527    0.651514    0.842556  0.000274831
780    0.362597    0.649352     1.44851  0.000236833
790    0.361791    0.648908     1.55919  0.000246753
800    0.357662    0.646637     1.40039  0.000311843
810    0.355554    0.645477     1.56013  0.000189371
820    0.353874    0.644553     1.08139  0.000286913
830    0.349816    0.642321     1.41619  0.000271982
840    0.348435    0.641561     1.89344  0.000252636
850    0.344763    0.639541     1.75027  0.000223675
860    0.343961      0.6391      1.2559  0.000184068
870    0.341082    0.637516     1.24011  0.000164169
880    0.340678    0.637294     1.89305  9.93937e-05
890    0.339094    0.636422     1.65406  0.000217727
900    0.336323    0.634898     1.94066  0.000238355
910    0.334327      0.6338     1.60603  0.000204648
920     0.33223    0.632647     2.05236  0.000180216
930    0.330722    0.631817     2.27485  0.000210278
940    0.328025    0.630333     2.13139  0.000321595
950     0.32429    0.628279     1.89283  0.000248708
960    0.323051    0.627597       2.466  0.00025412
970    0.319208    0.625483     2.32324  0.000221577
980    0.318619    0.625159     1.90835  0.000179875
990     0.31561    0.623504     1.98796  0.000238313
1000    0.313853    0.622537     2.00362  0.000198033
1010     0.31165    0.621325     2.11531  0.000179556
1020    0.310262    0.620561      2.6572  0.000124764
1030    0.309155    0.619952     1.98777  0.000136112
1040    0.307539    0.619064     2.32237  0.00013167
1050    0.306521    0.618503      2.5609  0.00016209
1060    0.304298     0.61728      2.2583  0.00016235
1070    0.303274    0.616717     2.70409  0.000156395
1080     0.30117     0.61556     2.30586  8.05467e-05
1090    0.301663    0.615831     1.42877  0.000136498
1100     0.29844    0.614058      1.3175  0.000149271
1110    0.298678    0.614189     2.09806  0.000149824
1120    0.295443    0.612409     2.33658  0.000216973
1130    0.294338    0.611801     1.87437  0.000117011
1140    0.293103    0.611122     1.85838  0.000176364
1150    0.290811    0.609861     2.73522  0.000133507
1160    0.290433    0.609653      2.2886  0.000101891
1170    0.288773     0.60874     2.14523  0.000111653
1180      0.2882    0.608425     2.59088  9.27091e-05
1190    0.286919     0.60772     2.75003  0.000157186
1200    0.285056    0.606695     3.18011  0.000115716
1210    0.284605    0.606447     2.20799  0.000107986
1220    0.282896    0.605507     2.54277  0.00012745
1230    0.282056    0.605045     2.78145  9.06497e-05
1240    0.281083     0.60451     2.60577  0.000126469
1250    0.279526    0.603653     2.78142  0.000170438
1260    0.277675    0.602634     2.60584  0.000162674
1270    0.276273    0.601863     2.65379  0.000133896
1280    0.274997    0.601161     2.76541  0.00011472
1290    0.273978    0.600601     3.25892  0.000165373
1300    0.271689    0.599342     2.97235  0.000217791
1310    0.269623    0.598205     2.60588  8.95709e-05
1320    0.269898    0.598356     2.28704  0.000124156
1330    0.267139    0.596839     2.58937  0.000212461
1340    0.265649    0.596019     2.97233  0.000185227
1350    0.263435    0.594801     3.22722  8.57368e-05
1360    0.263934    0.595075     2.92388  7.79033e-05
1370    0.261877    0.593944     3.44952  0.000214161
1380    0.259651    0.592719     2.93993  0.000229438
1390    0.257288    0.591419     2.81226  0.000206929
1400    0.255512    0.590442     2.47763  0.000205787
1410    0.253172    0.589155     2.42979  0.000224341
1420    0.251025    0.587974     2.30221  0.000167112
1430     0.24983    0.587317     2.14297  0.000144461
1440    0.248136    0.586385     2.12656  0.000103434
1450    0.247761    0.586179     2.60434  0.000173265
1460    0.244671    0.584478     2.79562  0.000133708
1470    0.245087    0.584707     2.20568  9.77576e-05
1480    0.242716    0.583403     2.28533  0.000185915
1490    0.241369    0.582662     2.46038  0.000131486
1500    0.240086    0.581956     2.42853  0.000223403
1510    0.236901    0.580204     2.44464  0.000217158
1520    0.235743    0.579567     3.49629  0.000132629
1530    0.234248    0.578745     2.89077  0.000181375
1540    0.232115    0.577571     2.18937  0.000221941
1550     0.22981    0.576303      2.6995  0.000101837
1560    0.230079    0.576451     2.74721  5.02035e-05
1570    0.228805    0.575751      1.9664  0.000140956
1580    0.227259      0.5749     3.01775  0.000190065
1590    0.225004    0.573659     3.11384  0.000202227
1600    0.223215    0.572675     2.57201  3.07925e-05
1610    0.224388    0.573321     2.81014  5.97216e-05
1620     0.22202    0.572018     2.87408  0.000198245
1630    0.220423    0.571139     2.89038  9.21726e-05
1640    0.220177    0.571004     3.16112  0.000168655
1650     0.21705    0.569284     3.12894  0.000184181
1660    0.216493    0.568977      3.4952  0.000183071
1670    0.213389     0.56727     3.31973  0.000295602
1680    0.210581    0.565725     2.66676  0.000182291
1690    0.209743    0.565264     3.52707  7.37198e-05
1700    0.209107    0.564914     3.63863  3.98122e-05
1710    0.208947    0.564826     2.71374  0.000147549
1720    0.206156    0.563291     3.44705  0.000118701
1730    0.206573     0.56352     3.43044  0.000132884
1740    0.203498    0.561829     3.35118  0.00015009
1750    0.203571    0.561869     2.87281  6.1439e-05
1760     0.20227    0.561153     3.68555  4.60595e-05
1770     0.20265    0.561362     4.16335  0.000120213
1780    0.199865     0.55983     3.94035  0.000187518
1790    0.198899    0.559299     3.66925  0.00014497
1800    0.196966    0.558235     4.11552  8.82663e-05
1810    0.197134    0.558327     4.32204  7.30485e-05
1820    0.195505    0.557431      3.6212  0.000154467
1830    0.194045    0.556628     4.24219  0.00012887
1840    0.192927    0.556013     3.39766  0.000134428
1850    0.191356    0.555149     3.41386  0.000152099
1860    0.189886     0.55434     3.76453  0.000110732
1870    0.189142    0.553931     3.50903  7.96959e-05
1880    0.188292    0.553463     3.41322  0.000163579
1890     0.18587    0.552131      3.7959  0.000186598
1900     0.18456     0.55141     3.74816  7.52479e-05
1910    0.184365    0.551303     3.74766  0.000135008
1920    0.181859    0.549925     3.60452  9.13814e-05
1930    0.182537    0.550298      3.5403  1.46002e-05
1940    0.181567    0.549764     4.19335  0.000148053
1950    0.179576    0.548669     3.66779  0.000176516
1960    0.178037    0.547822      3.7156  0.000198099
1970    0.175614    0.546489     3.85924  0.000209107
1980    0.173855    0.545521     4.22561  0.000107281
1990    0.173469    0.545309     3.65163  -3.73274e-06
2000     0.17393    0.545562     3.17334  7.77513e-05
2010    0.171914    0.544453     3.81071  0.00013802
2020    0.171169    0.544044     3.84263  6.74628e-05
2030    0.170564    0.543711     4.04934  0.00014763
2040    0.168217    0.542419     3.58716  0.000135425
2050    0.167856    0.542221     3.73019  0.000151904
2060    0.165179    0.540748     4.04905  0.000194957
2070    0.163957    0.540076     4.30386  0.000200884
2080    0.161161    0.538538     4.14433  0.000174457
2090    0.160468    0.538157     4.43125  0.000158947
2100    0.157982    0.536789     3.81004   0.0001987
2110    0.156494     0.53597     4.39955  0.000127456
2120    0.155433    0.535387     4.28768  0.000133172
2130     0.15383    0.534505     3.80933  9.92909e-05
2140    0.153447    0.534294      3.5224  5.99653e-05
2150    0.152631    0.533845     3.90488  0.000155734
2160    0.150332    0.532581     4.11193  0.000222889
2170    0.148173    0.531393     4.43105  0.000127608
2180     0.14778    0.531177     3.66575  0.000135273
2190    0.145468    0.529905     3.52288  9.01513e-05
2200    0.145977    0.530185      2.9965  0.000132358
2210    0.142821    0.528449     3.63421  0.000190612
2220    0.142165    0.528088     2.55039  0.000102065
2230    0.140779    0.527326     2.66207  9.86405e-05
2240    0.140192    0.527003     2.42232  0.000153687
2250    0.137706    0.525635     3.23526  0.00016131
2260    0.136966    0.525228     3.42625  0.000156358
2270    0.134578    0.523914     3.52187  0.000136465
2280    0.134237    0.523726     3.15533  0.00014062
2290    0.131766    0.522367     3.21941  0.000104123
2300    0.132154    0.522581     2.86853  5.67526e-05
2310    0.130631    0.521743     2.69363  0.000150696
2320     0.12914    0.520923     2.37467  8.10288e-05
2330     0.12901    0.520851     2.18322  0.000166256
2340    0.125815    0.519094     2.43829  0.000268194
2350    0.123646      0.5179     2.83706  0.000135657
2360    0.123102    0.517601     2.82065  2.30297e-05
2370    0.123186    0.517647     2.39044  0.000138253
2380    0.120337     0.51608     2.80479  0.000222033
2390    0.118745    0.515204     2.72519  0.000144526
2400    0.117446     0.51449     2.59732  0.000100217
2410    0.116741    0.514102     3.20294  0.000145306
2420     0.11454    0.512891     2.07107  0.000100742
2430    0.114726    0.512993     3.29806  8.80655e-05
2440    0.112779    0.511922     3.66468  7.13207e-05
2450      0.1133    0.512208     2.54897  0.00010168
2460    0.110745    0.510803     2.70803  0.000236969
2470     0.10856    0.509601     2.70842  7.21168e-05
2480    0.109303     0.51001     2.66025   3.861e-05
2490    0.107788    0.509176     2.75578  6.50659e-06
2500    0.109173    0.509938     3.21759  5.01275e-05
2510    0.106785    0.508625       3.425  0.000176711
2520    0.105639    0.507994     2.96259  0.000150778
2530     0.10377    0.506966     2.75587  0.000228838
2540    0.101062    0.505476     2.50102  5.66445e-05
2550    0.102637    0.506343     2.69169  -3.79708e-05
2560    0.101821    0.505894     2.48455  9.50161e-05
2570    0.100737    0.505297     3.05801  7.05078e-05
2580    0.100411    0.505118     2.80314  4.01918e-05
2590   0.0999329    0.504855     3.39214  7.08491e-05
2600   0.0989943    0.504339      2.5797  1.7444e-05
2610    0.099584    0.504663     2.62711  9.8088e-05
2620   0.0970325     0.50326     2.27696  0.000146113
2630   0.0966617    0.503056     2.27649  9.66955e-05
2640   0.0950986    0.502196     1.95812  0.000154586
2650     0.09357    0.501355     1.48017  5.67473e-05
2660   0.0939636    0.501571     2.11713  -6.25875e-05
2670   0.0948218    0.502043     2.13278  4.90285e-06
2680   0.0938656    0.501517     2.59473  0.000142159
2690   0.0919786    0.500479     2.26032  0.000194784
2700   0.0899699    0.499374     2.38731  0.000168154
2710   0.0886155    0.498629     2.16452  0.000125923
2720   0.0874515    0.497989     2.69036  0.000106834
2730   0.0864788    0.497454     2.65848  9.15516e-05
2740   0.0856204    0.496982     2.97687  7.81436e-05
2750   0.0849159    0.496594     3.26362  4.51624e-05
2760   0.0847172    0.496485     2.70599  9.42443e-05
2770   0.0830311    0.495557     2.75371  0.000200179
2780   0.0807136    0.494282     2.61065  0.000135947
2790   0.0803121    0.494061     2.84932  5.39657e-05
2800   0.0796343    0.493688     3.19972  0.000174105
2810     0.07683    0.492146     3.37488  0.000140923
2820   0.0768158    0.492138      2.4342  4.68202e-05
2830   0.0758936    0.491631     2.60939  9.23455e-05
2840   0.0749689    0.491122     3.23109  0.000215232
2850    0.071589    0.489263      2.6258  0.000261231
2860   0.0697443    0.488248     2.72152  0.000111317
2870   0.0693626    0.488038     2.86445  8.98778e-05
2880   0.0679467    0.487259     2.67324  0.000199475
2890   0.0653731    0.485843     2.67315  0.000182023
2900   0.0643063    0.485256     2.40216  0.000134758
2910    0.062678     0.48436     3.10344  7.31539e-05
2920   0.0628432    0.484451     2.52895  0.000103497
2930    0.060608    0.483222      2.1152  0.000175768
2940   0.0593278    0.482518     2.40208  0.000110128
2950   0.0584055     0.48201     1.74874  0.000100396
2960   0.0573199    0.481413     1.73247  0.000177128
2970   0.0548629    0.480061     1.87671  0.000151368
2980   0.0542925    0.479748     2.17919  5.30582e-05
2990   0.0538017    0.479477     1.41403  7.74447e-05
3000   0.0527437    0.478895     1.87618  -1.13793e-05
3010   0.0540293    0.479603     2.22615  5.96864e-05
3020   0.0515499    0.478239      2.5932  8.59501e-05
3030   0.0523103    0.478657     1.81164  1.73332e-05
3040   0.0512033    0.478048     1.63632  8.44143e-05
3050    0.050622    0.477728     1.92312  9.69393e-05
3060   0.0492645    0.476981     1.73213  0.000135912
3070   0.0479038    0.476233     2.13066  4.63678e-05
3080   0.0483371    0.476471     2.16214  2.00283e-05
3090   0.0475032    0.476013     2.22583  0.000122474
3100   0.0458876    0.475124      2.0187  0.000108435
3110   0.0453345     0.47482     1.74776  0.000112948
3120   0.0436287    0.473881     1.98659  0.000123466
3130   0.0428652    0.473461     2.11371  3.31655e-05
3140   0.0429654    0.473516     2.41653  8.70282e-05
3150   0.0411246    0.472504     2.22541  3.54245e-05
3160   0.0422569    0.473126     2.71915  -4.70936e-05
3170   0.0420665    0.473022     2.33681  5.22321e-05
3180   0.0412122    0.472552     2.86272  -3.48857e-05
3190   0.0427642    0.473406     2.68703  2.34656e-05
3200   0.0407429    0.472294     2.79894  0.000116995
3210   0.0404243    0.472118     3.03779  4.85888e-05
3220   0.0397711    0.471759     2.89423  5.28876e-05
3230   0.0393666    0.471536     2.97385  6.14418e-05
3240   0.0385423    0.471083     2.79867  6.36764e-05
3250    0.038093    0.470836     3.30838  7.2282e-05
3260   0.0370967    0.470288     3.51565  0.00019017
3270   0.0342896    0.468744     2.71904  9.79902e-05
3280   0.0351369     0.46921     2.75024  6.69297e-05
3290    0.032951    0.468007     3.19668  0.000151328
3300   0.0321103    0.467545     3.13288  -1.30262e-05
3310   0.0332116     0.46815      3.0052  7.81409e-05
3320   0.0305475    0.466685     3.08478  0.000209578
3330     0.02902    0.465845     3.45143  9.98567e-05
3340   0.0285504    0.465586     2.65498  4.06685e-05
3350   0.0282066    0.465397     2.94133  3.22797e-05
3360   0.0279048    0.465231     2.76593  6.43807e-05
3370    0.026919    0.464689     3.30753  8.80277e-05
3380   0.0261442    0.464263     3.35515  4.97997e-05
3390    0.025923    0.464141     3.08437  8.85748e-05
3400   0.0243727    0.463288       3.164  0.000125226
3410   0.0234185    0.462763     3.19587  4.39489e-05
3420   0.0234937    0.462804     3.45082  -2.47034e-05
3430   0.0239126    0.463035     3.16386  3.34661e-05
3440   0.0228244    0.462436     3.38699  4.20799e-05
3450    0.023071    0.462572     3.57811  9.4201e-05
3460   0.0209404      0.4614     3.51435  0.000100799
3470    0.021055    0.461463     3.33902  5.57723e-05
3480    0.019825    0.460786     3.46643  8.84096e-05
3490   0.0192868     0.46049     3.64169  8.86859e-05
3500   0.0180512     0.45981     3.33907  0.000101996
3510   0.0172469    0.459368     3.29123  2.16344e-05
3520   0.0176185    0.459572     3.13156  4.80147e-05
3530   0.0162866     0.45884     3.13165  8.52269e-05
3540    0.015914    0.458635      2.9563  3.73233e-05
3550   0.0155401    0.458429     2.94049  0.000241701
3560     0.01108    0.455975     2.89285  0.000169546
3570   0.0121492    0.456564     3.03603  -6.08214e-05
3580   0.0122964    0.456645     2.63757  -5.22457e-05
3590   0.0131941    0.457138     2.68507  7.58304e-05
3600   0.0107798     0.45581       2.717  0.000100147
3610   0.0111912    0.456037     2.54155  8.0706e-05
3620  0.00916568    0.454922     2.71705  0.00013851
3630  0.00842095    0.454513     2.74872  -5.2186e-05
3640   0.0102094    0.455496     2.78015  -3.43573e-05
3650   0.0091081    0.454891     2.23845  8.35556e-05
3660  0.00853829    0.454577     2.89202  0.000110673
3670  0.00689465    0.453673     2.41389  0.000104231
3680  0.00645367     0.45343     2.52531  4.86268e-05
3690  0.00592211    0.453138     3.03539  0.000143055
3700  0.00359256    0.451856     2.70094  0.000170337
3710  0.00251536    0.451264     2.31833  4.31498e-06
3720  0.00350626    0.451809     2.47733  -2.25338e-05
3730  0.00296604    0.451512     1.98358  8.79492e-05
3740  0.00174728    0.450841     1.82422  7.91133e-05
3750  0.00138377    0.450641     1.74432  4.54603e-05
3760  0.000838075    0.450341     2.49301  0.00010915
3770  -0.000799232     0.44944     2.52501  0.000202631
3780  -0.00321454    0.448112     2.28581  0.000237383
3790  -0.0055469    0.446829     2.25423  0.000203947
3800  -0.00729348    0.445868      2.2701  6.52773e-05
3810  -0.00685244     0.44611     2.49305  -3.73071e-05
3820  -0.00654734    0.446278     2.38113  9.09314e-05
3830  -0.00867107     0.44511     2.58844  0.000162198
3840  -0.00979129    0.444494     2.38113  5.46835e-05
3850  -0.00976474    0.444508     2.89083  -4.91361e-06
3860  -0.00969302    0.444548      2.6519  5.50789e-05
3870  -0.0108663    0.443902     2.61953  0.000152213
3880  -0.0127373    0.442873     2.63561    0.000111
3890  -0.0130863    0.442681     2.55581  0.000139296
3900  -0.0155232     0.44134     2.66756  0.000114031
3910   -0.015367    0.441426     2.41238  7.60332e-06
3920  -0.0156753    0.441257     3.04953  0.000117127
3930  -0.0177095    0.440138      2.7785  0.000112715
3940  -0.0179296    0.440017      2.9538  7.34521e-05
3950  -0.0191785     0.43933     2.76243  0.000101739
3960  -0.0199643    0.438897     3.00156  0.000104467
3970  -0.0212679     0.43818     2.90571  5.06936e-05
3980  -0.0209782     0.43834     3.39969  0.000102815
3990  -0.0233242    0.437049     2.81032  0.000107631
4000  -0.0231308    0.437155     2.33209  -1.22407e-05
4010  -0.0230794    0.437184      2.7782  -7.61013e-05
4020  -0.0216088    0.437993     2.60244  3.03565e-05
4030  -0.0236865     0.43685     2.18815  0.000144038
4040  -0.0244896    0.436408     2.22008  0.000123255
4050  -0.0261516    0.435494     1.82149  0.00011882
4060   -0.026866    0.435101     2.17227  0.000135993
4070  -0.0288715    0.433997     1.74186  7.90456e-05
4080  -0.0284469    0.434231     2.44303  4.60048e-05
4090  -0.0297915    0.433491     2.36323  0.000115513
4100  -0.0307571     0.43296     1.75787  0.000125546
4110  -0.0323025     0.43211     1.96472  9.9472e-05
4120  -0.0327466    0.431866     1.78927  7.8206e-05
4130  -0.0338666    0.431249     2.20329  0.000126676
4140  -0.0352801    0.430472     2.02832  5.21481e-05
4150  -0.0349096    0.430676     1.99617  0.000113043
4160   -0.037541    0.429228     2.52229  0.000202929
4170  -0.0389681    0.428443     2.26714  0.000108928
4180  -0.0397195     0.42803     2.29923  5.33858e-05
4190  -0.0400358    0.427856      2.4584  2.43595e-05
4200  -0.0402067    0.427762     2.17118  0.000112368
4210  -0.0422832    0.426619     2.18718  0.000163983
4220  -0.0434864    0.425957     2.04372  4.45446e-05
4230  -0.0431741    0.426129     1.43797  6.44837e-05
4240   -0.044776    0.425248     1.37439  5.22241e-05
4250  -0.0442186    0.425555     1.50153  -6.32267e-05
4260  -0.0435115    0.425944     1.27817  2.78834e-05
4270  -0.0447762    0.425248     1.35801  8.22283e-05
4280  -0.0451561    0.425039     1.67662  1.57323e-05
4290  -0.0450909    0.425075     1.08676  3.8136e-05
4300  -0.0459188    0.424619     1.38969  6.30479e-05
4310  -0.0463519    0.424381     1.11871  3.54834e-06
4320  -0.0459898     0.42458     1.70789  1.86061e-05
4330   -0.046724    0.424176     1.30992  7.10333e-05
4340  -0.0474104    0.423799     1.35737  0.000103811
4350  -0.0488002    0.423034     1.45338  0.000164329
4360   -0.050697    0.421991     1.00722  0.000112133
4370  -0.0510429      0.4218     1.42128  0.000122713
4380  -0.0531513    0.420641     1.32589  0.000160811
4390  -0.0542591    0.420031     1.11869  6.80292e-05
4400  -0.0545118    0.419892     1.18233  -5.0577e-05
4410  -0.0532475    0.420588     1.05444  -3.28647e-05
4420  -0.0538546    0.420254     1.07023  0.000142042
4430  -0.0560884    0.419025    0.736174  0.000142402
4440  -0.0567026    0.418687     1.29355  8.70148e-05
4450  -0.0578287    0.418067     1.10222  7.19678e-05
4460   -0.058142    0.417895    0.926809  0.000133691
4470  -0.0605025    0.416596     1.59641  0.00011859
4480  -0.0605138     0.41659     1.42101  5.25029e-05
4490  -0.0615525    0.416019     1.29323  5.25841e-05
4500  -0.0615654    0.416012     1.45262  -3.47175e-05
4510  -0.0608582    0.416401     1.38832  4.26974e-05
4520  -0.0624194    0.415542     1.00602  0.000171906
4530  -0.0642963    0.414509     2.04176  8.95934e-05
4540  -0.0642113    0.414556     1.35648  1.48382e-05
4550  -0.0645931    0.414346     1.45193  6.4256e-05
4560  -0.0654964    0.413849     1.85037  2.27749e-05
4570  -0.0650486    0.414096     2.04156  -3.70309e-05
4580  -0.0647558    0.414257     1.41978  7.0012e-05
4590  -0.0664488    0.413325     1.10118  0.000106756
4600  -0.0668909    0.413082     1.03744  7.31405e-05
4610  -0.0679116    0.412521    0.957666  8.12452e-05
4620  -0.0685158    0.412188    0.830115  0.000100027
4630  -0.0699122     0.41142     1.14877  9.24319e-05
4640  -0.0703644    0.411171     1.18054  3.20386e-05
4650  -0.0705529    0.411068     1.05307  1.36223e-05
4660  -0.0706369    0.411021    0.989162  4.49643e-07
4670  -0.0705619    0.411063     1.32371  4.83125e-05
4680  -0.0716031     0.41049    0.813659  8.03512e-05
4690   -0.072169    0.410179    0.558711  8.33794e-05
4700  -0.0732707    0.409572    0.462996  3.55057e-05
4710  -0.0728791    0.409788    0.892903  8.99583e-06
4720  -0.0734506    0.409473    0.701832  5.45561e-05
4730  -0.0739702    0.409188    0.574389  1.71434e-05
4740  -0.0737935    0.409285    0.685516  6.30591e-05
4750  -0.0752314    0.408494     0.82901  9.82124e-05
4760  -0.0757577    0.408204    0.749175  7.43702e-05
4770  -0.0767188    0.407676     1.06833  7.73147e-05
4780   -0.077304    0.407354    0.733436  3.4219e-05
4790  -0.0774032    0.407299    0.956453  3.71203e-05
4800  -0.0780464    0.406945     1.08371  6.71625e-05
4810  -0.0787464     0.40656    0.971913  9.74622e-05
4820  -0.0799957    0.405873     1.19504  0.000144291
4830  -0.0816322    0.404973    0.860334  0.000153026
4840  -0.0830562    0.404189    0.764775  0.00013443
4850  -0.0843208    0.403494    0.557621  0.000173501
4860  -0.0865262     0.40228    0.462047  6.93105e-05
4870   -0.085707    0.402731    0.716887  2.28997e-05
4880  -0.0869842    0.402028    0.446137  8.36995e-05
4890   -0.087381     0.40181    0.541478  0.000131251
4900  -0.0896092    0.400584    0.350421  6.21106e-05
4910  -0.0886232    0.401127    0.302378  -4.03408e-05
4920  -0.0888024    0.401028     0.17453  -2.10658e-05
4930  -0.0882019    0.401358    0.365757  3.76184e-05
4940  -0.0895548    0.400614   -0.255719  0.00010197
4950  -0.0902413    0.400237   -0.160191  0.000141728
4960  -0.0923893    0.399055    0.158681  8.59011e-05
4970  -0.0919593    0.399291  -0.0329338  7.65212e-06
4980  -0.0925424    0.398971   -0.160378  0.000123328
4990  -0.0944259    0.397935   -0.351308  0.000239003
