Time   Number   
ps   
0          55          34
10          62          33
20          65          31
30          65          32
40          71          33
50          67          39
60          68          28
70          67          34
80          70          33
90          67          30
100          69          33
110          68          33
120          64          33
130          66          35
140          65          33
150          67          31
160          63          33
170          68          33
180          67          33
190          59          37
200          65          33
210          62          36
220          67          31
230          59          41
240          62          36
250          69          34
260          64          36
270          61          37
280          60          36
290          60          38
300          59          36
310          61          36
320          62          40
330          63          35
340          61          44
350          60          31
360          54          45
370          60          34
380          57          31
390          59          36
400          60          35
410          65          35
420          59          39
430          63          40
440          59          37
450          60          42
460          60          46
470          63          35
480          60          29
490          63          31
500          66          34
510          66          31
520          66          33
530          61          40
540          62          36
550          67          38
560          64          38
570          67          31
580          65          38
590          64          44
600          63          37
610          65          35
620          66          34
630          67          37
640          66          41
650          71          33
660          70          35
670          67          38
680          64          37
690          64          40
700          63          29
710          61          35
720          61          39
730          65          35
740          65          32
750          58          37
760          64          30
770          62          39
780          65          31
790          65          40
800          61          34
810          59          34
820          64          34
830          61          36
840          62          32
850          67          33
860          64          31
870          67          37
880          63          31
890          61          26
900          63          34
910          63          31
920          58          36
930          62          39
940          63          38
950          61          34
960          58          32
970          62          32
980          58          39
990          64          35
1000          64          38
1010          59          39
1020          62          37
1030          56          39
1040          64          37
1050          60          37
1060          58          33
1070          62          44
1080          57          36
1090          61          38
1100          66          33
1110          61          31
1120          61          36
1130          61          38
1140          55          32
1150          61          27
1160          60          33
1170          56          32
1180          59          30
1190          62          30
1200          57          35
1210          58          37
1220          61          37
1230          59          40
1240          65          33
1250          60          38
1260          60          35
1270          61          45
1280          66          39
1290          61          33
1300          61          46
1310          66          34
1320          63          28
1330          67          37
1340          57          47
1350          58          43
1360          57          43
1370          61          41
1380          58          41
1390          53          42
1400          57          37
1410          59          41
1420          58          33
1430          61          45
1440          59          37
1450          60          39
1460          59          46
1470          57          45
1480          56          40
1490          63          50
1500          57          46
1510          61          45
1520          64          38
1530          60          38
1540          62          41
1550          63          52
1560          68          43
1570          62          44
1580          59          44
1590          65          41
1600          64          39
1610          60          48
1620          63          37
1630          56          45
1640          62          44
1650          58          37
1660          61          36
1670          60          43
1680          59          34
1690          58          37
1700          63          32
1710          62          38
1720          60          37
1730          58          37
1740          55          42
1750          52          46
1760          61          38
1770          58          46
1780          55          30
1790          53          44
1800          56          44
1810          62          39
1820          59          38
1830          64          36
1840          59          41
1850          60          34
1860          61          32
1870          60          42
1880          64          43
1890          58          42
1900          62          35
1910          60          33
1920          58          36
1930          58          34
1940          59          30
1950          59          32
1960          60          37
1970          65          31
1980          62          32
1990          59          39
2000          59          34
2010          61          30
2020          62          38
2030          62          35
2040          57          31
2050          53          48
2060          59          38
2070          64          36
2080          61          31
2090          64          35
2100          56          37
2110          59          40
2120          65          44
2130          56          41
2140          55          53
2150          61          45
2160          60          42
2170          62          38
2180          63          43
2190          64          38
2200          62          36
2210          60          41
2220          62          37
2230          63          35
2240          62          29
2250          58          37
2260          65          38
2270          59          32
2280          57          36
2290          58          39
2300          60          45
2310          63          42
2320          62          47
2330          64          47
2340          65          45
2350          67          44
2360          58          43
2370          61          39
2380          65          46
2390          62          39
2400          61          56
2410          63          49
2420          60          45
2430          66          47
2440          62          36
2450          62          36
2460          61          35
2470          64          34
2480          63          36
2490          59          36
2500          66          42
2510          59          39
2520          64          40
2530          66          36
2540          62          39
2550          57          34
2560          61          36
2570          63          39
2580          58          35
2590          58          35
2600          63          40
2610          60          35
2620          64          39
2630          64          39
2640          64          33
2650          62          40
2660          64          39
2670          66          34
2680          62          42
2690          62          39
2700          61          38
2710          64          39
2720          64          34
2730          54          43
2740          61          37
2750          60          36
2760          59          32
2770          66          34
2780          60          39
2790          63          39
2800          60          40
2810          58          39
2820          63          32
2830          61          38
2840          63          34
2850          63          38
2860          66          42
2870          58          44
2880          63          35
2890          63          36
2900          59          37
2910          60          38
2920          58          32
2930          58          38
2940          66          38
2950          55          39
2960          62          36
2970          60          38
2980          65          36
2990          60          34
3000          61          37
3010          63          38
3020          65          40
3030          62          46
3040          68          38
3050          60          44
3060          55          42
3070          64          43
3080          63          37
3090          66          41
3100          62          43
3110          68          37
3120          63          46
3130          62          43
3140          67          38
3150          62          44
3160          64          41
3170          65          42
3180          63          42
3190          61          40
3200          62          44
3210          63          38
3220          64          46
3230          62          38
3240          61          38
3250          63          39
3260          66          38
3270          62          44
3280          64          42
3290          62          39
3300          66          44
3310          67          47
3320          64          48
3330          68          38
3340          61          46
3350          65          41
3360          62          40
3370          67          46
3380          58          47
3390          61          46
3400          66          43
3410          65          42
3420          64          44
3430          63          45
3440          68          41
3450          61          43
3460          60          41
3470          62          47
3480          68          49
3490          66          41
3500          59          37
3510          63          40
3520          62          42
3530          66          44
3540          68          42
3550          63          42
3560          63          43
3570          64          43
3580          63          39
3590          61          44
3600          60          51
3610          56          40
3620          58          40
3630          61          38
3640          61          38
3650          62          44
3660          64          41
3670          62          40
3680          64          40
3690          62          38
3700          61          35
3710          61          36
3720          60          37
3730          61          44
3740          60          33
3750          62          37
3760          58          35
3770          59          39
3780          54          40
3790          59          36
3800          56          37
3810          60          37
3820          59          48
3830          62          38
3840          58          37
3850          60          40
3860          57          40
3870          59          36
3880          60          45
3890          60          44
3900          60          44
3910          57          41
3920          60          48
3930          56          48
3940          62          47
3950          63          51
3960          67          45
3970          64          43
3980          68          44
3990          70          46
4000          66          45
4010          64          49
4020          72          44
4030          69          44
4040          69          41
4050          64          42
4060          70          48
4070          62          52
4080          69          43
4090          69          48
4100          70          40
4110          65          41
4120          68          40
4130          69          45
4140          67          40
4150          70          43
4160          61          42
4170          60          38
4180          67          39
4190          62          41
4200          65          46
4210          60          38
4220          63          37
4230          69          37
4240          65          41
4250          61          40
4260          63          37
4270          63          37
4280          63          35
4290          63          37
4300          68          41
4310          67          42
4320          66          49
4330          68          44
4340          62          41
4350          63          38
4360          68          40
4370          65          37
4380          65          44
4390          63          43
4400          66          50
4410          68          48
4420          63          40
4430          65          43
4440          67          36
4450          66          43
4460          68          43
4470          66          38
4480          65          36
4490          62          50
4500          64          41
4510          68          39
4520          69          42
4530          65          46
4540          70          41
4550          67          47
4560          66          35
4570          65          38
4580          64          45
4590          63          46
4600          64          41
4610          64          41
4620          68          39
4630          68          43
4640          68          36
4650          65          45
4660          63          45
4670          64          48
4680          66          36
4690          65          39
4700          63          35
4710          66          37
4720          64          38
4730          64          43
4740          64          42
4750          60          35
4760          64          39
4770          65          35
4780          62          36
4790          62          37
4800          65          37
4810          66          35
4820          66          36
4830          68          33
4840          65          34
4850          65          40
4860          65          38
4870          63          40
4880          63          39
4890          63          43
4900          63          47
4910          65          42
4920          63          40
4930          63          40
4940          60          41
4950          63          42
4960          65          45
4970          67          47
4980          67          47
4990          64          43
5000          67          46
5010          63          42
5020          64          44
5030          66          43
5040          66          38
5050          65          34
5060          61          43
5070          58          37
5080          60          39
5090          61          34
5100          60          36
5110          61          36
5120          61          34
5130          66          35
5140          63          38
5150          62          40
5160          61          37
5170          65          35
5180          65          35
5190          66          45
5200          61          39
5210          61          38
5220          60          34
5230          61          39
5240          66          30
5250          63          31
5260          62          34
5270          62          41
5280          60          38
5290          63          32
5300          61          38
5310          59          37
5320          61          33
5330          56          39
5340          64          32
5350          62          34
5360          64          38
5370          61          41
5380          63          39
5390          63          39
5400          61          45
5410          61          42
5420          64          36
5430          57          45
5440          64          38
5450          65          38
5460          64          38
5470          64          45
5480          63          52
5490          66          33
5500          62          46
5510          65          42
5520          65          41
5530          65          44
5540          59          40
5550          66          43
5560          65          40
5570          56          39
5580          62          38
5590          60          36
5600          66          38
5610          64          42
5620          67          35
5630          59          45
5640          63          41
5650          63          34
5660          62          38
5670          64          39
5680          67          40
5690          62          44
5700          63          46
5710          61          39
5720          58          41
5730          59          39
5740          59          47
5750          64          43
5760          63          40
5770          59          40
5780          62          44
5790          58          45
5800          62          44
5810          62          40
5820          61          36
5830          61          41
5840          62          38
5850          65          37
5860          68          48
5870          65          39
5880          66          42
5890          72          49
5900          69          49
5910          65          44
5920          68          40
5930          68          40
5940          62          40
5950          69          41
5960          66          40
5970          66          37
5980          64          52
5990          67          46
6000          70          53
6010          65          43
6020          64          45
6030          67          45
6040          71          46
6050          68          46
6060          64          49
6070          69          46
6080          72          36
6090          64          41
6100          69          41
6110          71          41
6120          70          47
6130          71          41
6140          72          42
6150          70          39
6160          74          44
6170          75          43
6180          71          50
6190          75          43
6200          74          46
6210          72          49
6220          74          55
6230          70          42
6240          71          45
6250          70          46
6260          72          49
6270          73          46
6280          68          49
6290          75          44
6300          69          37
6310          73          48
6320          67          43
6330          71          45
6340          69          51
6350          72          39
6360          71          42
6370          69          44
6380          69          48
6390          69          47
6400          59          42
6410          63          46
6420          64          45
6430          73          47
6440          70          49
6450          76          48
6460          70          49
6470          67          48
6480          67          49
6490          71          45
6500          67          40
6510          69          42
6520          69          41
6530          70          46
6540          63          47
6550          67          40
6560          65          40
6570          65          50
6580          70          44
6590          68          37
6600          70          37
6610          71          47
6620          69          41
6630          68          42
6640          67          43
6650          70          41
6660          72          45
6670          65          54
6680          70          41
6690          66          39
6700          70          47
6710          74          44
6720          67          40
6730          71          56
6740          76          52
6750          73          48
6760          69          44
6770          68          58
6780          70          48
6790          71          50
6800          68          46
6810          69          47
6820          64          49
6830          67          38
6840          70          50
6850          68          46
6860          71          39
6870          70          42
6880          73          39
6890          68          48
6900          65          41
6910          73          44
6920          74          45
6930          70          48
6940          72          45
6950          66          46
6960          66          53
6970          69          50
6980          65          45
6990          75          43
7000          67          48
7010          73          43
7020          75          46
7030          71          47
7040          73          40
7050          76          42
7060          73          45
7070          70          49
7080          72          41
7090          69          42
7100          67          40
7110          69          45
7120          68          44
7130          68          48
7140          64          52
7150          65          39
7160          69          40
7170          70          43
7180          71          47
7190          69          40
7200          69          43
7210          70          36
7220          70          42
7230          71          38
7240          69          44
7250          69          40
7260          66          43
7270          67          40
7280          65          37
7290          66          42
7300          65          36
7310          67          38
7320          65          39
7330          66          35
7340          60          38
7350          62          41
7360          62          40
7370          59          43
7380          66          37
7390          63          42
7400          57          32
7410          60          44
7420          63          44
7430          62          34
7440          64          41
7450          68          35
7460          69          39
7470          67          44
7480          61          42
7490          61          38
7500          58          35
7510          64          40
7520          59          39
7530          61          32
7540          64          32
7550          63          36
7560          59          32
7570          61          31
7580          65          40
7590          61          35
7600          61          32
7610          63          39
7620          63          35
7630          61          37
7640          62          34
7650          65          31
7660          60          33
7670          60          40
7680          63          46
7690          60          35
7700          52          36
7710          60          30
7720          58          32
7730          59          39
7740          56          36
7750          60          34
7760          58          39
7770          60          35
7780          60          36
7790          61          38
7800          58          41
7810          57          35
7820          63          44
7830          59          46
7840          65          38
7850          68          37
7860          70          39
7870          61          38
7880          63          44
7890          65          44
7900          64          35
7910          61          41
7920          65          40
7930          66          39
7940          62          32
7950          63          41
7960          64          38
7970          67          37
7980          71          38
7990          66          42
8000          66          36
8010          70          39
8020          63          38
8030          63          39
8040          63          40
8050          64          37
8060          61          38
8070          63          36
8080          62          43
8090          64          35
8100          63          34
8110          64          42
8120          70          41
8130          62          35
8140          63          36
8150          62          40
8160          63          36
8170          64          38
8180          70          39
8190          64          41
8200          69          41
8210          68          40
8220          67          44
8230          69          46
8240          64          41
8250          67          36
8260          63          42
8270          68          45
8280          63          46
8290          71          38
8300          61          43
8310          62          35
8320          62          38
8330          61          36
8340          62          48
8350          64          41
8360          68          43
8370          63          44
8380          64          49
8390          65          48
8400          64          46
8410          72          45
8420          66          43
8430          71          43
8440          68          46
8450          72          41
8460          69          38
8470          71          40
8480          72          42
8490          71          39
8500          73          46
8510          78          41
8520          65          44
8530          65          49
8540          65          45
8550          71          51
8560          69          50
8570          65          51
8580          72          44
8590          66          42
8600          67          45
8610          68          44
8620          66          44
8630          69          35
8640          69          39
8650          66          46
8660          65          40
8670          63          37
8680          66          51
8690          61          37
8700          65          42
8710          63          45
8720          65          48
8730          62          41
8740          60          39
8750          58          46
8760          58          49
8770          62          44
8780          58          40
8790          62          47
8800          66          45
8810          67          39
8820          67          47
8830          64          45
8840          67          49
8850          65          39
8860          68          41
8870          67          44
8880          64          42
8890          66          45
8900          65          45
8910          71          40
8920          62          44
8930          61          50
8940          67          44
8950          66          41
8960          65          37
8970          61          42
8980          64          40
8990          67          41
9000          64          41
9010          69          45
9020          62          47
9030          70          46
9040          68          49
9050          68          46
9060          67          44
9070          67          50
9080          67          44
9090          68          42
9100          68          40
9110          66          46
9120          66          41
9130          63          45
9140          68          39
9150          66          39
9160          68          45
9170          70          38
9180          65          51
9190          66          45
9200          67          41
9210          59          40
9220          67          38
9230          66          45
9240          65          39
9250          68          43
9260          65          45
9270          60          45
9280          66          48
9290          64          43
9300          64          40
9310          63          43
9320          68          42
9330          68          41
9340          64          41
9350          64          49
9360          62          44
9370          68          42
9380          67          46
9390          66          41
9400          66          43
9410          68          42
9420          65          45
9430          66          42
9440          65          38
9450          64          42
9460          65          43
9470          63          38
9480          65          41
9490          69          45
9500          73          42
9510          73          43
9520          65          46
9530          69          43
9540          66          41
9550          66          42
9560          65          39
9570          64          49
9580          64          47
9590          62          39
9600          64          42
9610          66          43
9620          58          40
9630          65          41
9640          71          48
9650          66          50
9660          61          48
9670          69          45
9680          66          55
9690          71          44
9700          69          43
9710          75          45
9720          72          49
9730          70          46
9740          76          39
9750          72          51
9760          77          45
9770          75          38
9780          74          45
9790          75          48
9800          76          41
9810          72          47
9820          68          49
9830          74          50
9840          73          43
9850          70          42
9860          65          53
9870          75          41
9880          71          41
9890          71          43
9900          72          50
9910          69          52
9920          67          46
9930          68          49
9940          70          41
9950          68          44
9960          68          44
9970          76          50
9980          63          57
9990          68          56
10000          73          47
