Time   C(t)   
ps   
0           1           1  6.96691e-10   0.0241318
10    0.764171    0.815408     0.14699   0.0134833
20    0.730333    0.788922   -0.334159  0.00283484
30    0.707474    0.771029    -1.65883  0.00218275
40    0.686678    0.754752   -0.888421  0.00179359
50    0.671602    0.742951    -1.80374  0.00158768
60    0.654925    0.729897    -2.64637  0.00144423
70    0.642718    0.720342    -1.90172  0.00129757
80    0.628973    0.709584   -0.675425  0.00127292
90     0.61726    0.700415   -0.363416  0.00118919
100    0.605189    0.690967     1.12758  0.00119764
110    0.593307    0.681666    -0.43559  0.00105274
120    0.584135    0.674487  -0.0999858  0.000804165
130    0.577224    0.669077     1.07648  0.000793734
140     0.56826    0.662061    0.787578  0.000979558
150    0.557632    0.653743     1.87023  0.000921991
160     0.54982    0.647628    0.402622  0.000878257
170    0.540067    0.639994     1.43728  0.000876909
180    0.532282      0.6339     1.62997  0.000719702
190    0.525673    0.628727     1.38894  0.000627762
200    0.519727    0.624072      1.9166  0.00061681
210    0.513337    0.619071     2.32435  0.000688759
220    0.505951     0.61329     2.80599  0.000711553
230    0.499106    0.607932     2.13277  0.000570019
240    0.494551    0.604367     1.24187  0.000462098
250    0.489864    0.600698     1.91458  0.000584722
260    0.482857    0.595213     1.86678  0.000632033
270    0.477223    0.590804    0.999965  0.000587101
280    0.471115    0.586022     2.13115  0.000497133
290    0.467281    0.583021      2.1056  0.000420918
300    0.462696    0.579433     1.16751  0.000541012
310     0.45646    0.574552     2.20266  0.000498629
320    0.452724    0.571627    0.974842  0.000442372
330    0.447613    0.567627      1.0461   0.0005271
340    0.442182    0.563375   -0.301015  0.000448854
350    0.438636      0.5606   0.0111342  0.00041098
360    0.433962    0.556941    0.491391  0.00047566
370    0.429123    0.553154    0.900531  0.00052028
380    0.423556    0.548797   -0.350367  0.000494783
390    0.419227    0.545408   -0.301954  0.000449055
400    0.414575    0.541767    -1.31224  0.000443706
410    0.410353    0.538462   -0.759672  0.000421131
420    0.406153    0.535174    0.250476  0.000396934
430    0.402414    0.532248   -0.206279  0.000360113
440     0.39895    0.529537   -0.254598  0.000357717
450     0.39526    0.526648   -0.255326  0.000328602
460    0.392378    0.524392    -1.12115  0.000381321
470    0.387634    0.520678   -0.423598  0.000361498
480    0.385148    0.518733    0.273179  0.000217208
490    0.383289    0.517278    0.849675  0.000356679
500    0.378015     0.51315    0.152686  0.000423692
510    0.374815    0.510645    0.296282  0.000279109
520    0.372433     0.50878    0.776773  0.000268586
530    0.369444    0.506441    0.633037  0.00031514
540     0.36613    0.503847    0.776514  0.000407897
550    0.361286    0.500055    0.127352  0.000383224
560    0.358465    0.497848    0.343543  0.000244126
570    0.356403    0.496233   0.0539333  0.000294068
580    0.352584    0.493244    0.943283  0.000460462
590    0.347194    0.489025     1.52168  0.000391078
600    0.344763    0.487122    0.871767  0.000246669
610    0.342261    0.485163     1.11167  0.000317603
620     0.33841     0.48215     1.11238  0.000284554
630     0.33657    0.480709    0.774494  0.000259626
640    0.333218    0.478085    0.534401  0.000187871
650    0.332812    0.477768     1.35195  0.000246277
660    0.328292     0.47423     1.20761  0.000367194
670    0.325468    0.472019     0.70225  0.000306895
680    0.322154    0.469426     1.18349  0.000199568
690    0.321477    0.468895   -0.525381  0.000143614
700    0.319282    0.467177   -0.645874  0.000214958
710    0.317178     0.46553   -0.935319  0.000254254
720    0.314197    0.463197      -1.296  0.000272499
730    0.311728    0.461264   -0.502231  0.000193754
740    0.310322    0.460164     -1.3689  0.000186113
750    0.308006    0.458351    -1.29706  0.00022869
760    0.305748    0.456584   -0.984038  0.000295861
770    0.302088    0.453719    -2.49917  0.00027359
780    0.300276    0.452301    -1.97033  0.000213987
790    0.297809    0.450369    -1.65799  0.00016553
800    0.296966     0.44971    -1.68279  0.000263979
810    0.292529    0.446237    -1.34563  0.000259441
820    0.291777    0.445648    -3.03002  0.000242183
830    0.287685    0.442445    -3.29455  0.000304793
840    0.285681    0.440877    -2.83778  0.000266193
850    0.282362    0.438278    -3.82339  0.000266697
860    0.280347    0.436702    -1.73115  0.000191811
870    0.278525    0.435275    -1.39496  0.000226745
880    0.275812    0.433152    -2.50104  0.000281537
890    0.272895    0.430868    -2.98184  0.000171702
900    0.272378    0.430464    -2.74191  0.000229952
910    0.268296    0.427268    -3.58402  0.000309603
920    0.266186    0.425617    -2.40567  0.000154896
930    0.265198    0.424843     -2.6465  0.000206634
940    0.262054    0.422382    -2.45442  0.000316393
950     0.25887     0.41989    -2.93606  0.000315419
960    0.255745    0.417445    -3.24868  0.000332761
970    0.252215    0.414681    -3.63298  0.000285214
980    0.250041     0.41298    -3.12863  0.000117716
990     0.24986    0.412838     -4.1631  0.000134803
1000    0.247345    0.410869    -3.41742  0.000166672
1010    0.246527    0.410229    -2.23893  0.000127007
1020    0.244805    0.408881    -1.99848  0.000194167
1030    0.242643    0.407189    -3.24929  0.000147703
1040    0.241851    0.406569     -2.5044  0.000161505
1050    0.239413    0.404661    -3.53843  0.000114767
1060    0.239555    0.404772    -3.01004  0.000108461
1070    0.237244    0.402963     -4.0922  0.000300328
1080    0.233549    0.400071    -3.15422  0.000203247
1090    0.233179    0.399781    -3.49145  0.000163452
1100     0.23028    0.397512    -3.10684  0.000214265
1110    0.228894    0.396427    -2.72194  0.000165857
1120    0.226963    0.394915    -3.85253  0.00010195
1130    0.226855    0.394831    -3.05871  -1.04532e-06
1140    0.226983    0.394932    -2.33822  0.000104075
1150    0.224773    0.393202    -2.24154  0.00027221
1160    0.221539     0.39067    -2.74666  0.000226899
1170    0.220235     0.38965    -2.60233  0.000154362
1180    0.218452    0.388254    -3.20463  0.000132558
1190    0.217584    0.387575    -3.63735  0.000131191
1200    0.215828      0.3862    -3.22901  0.00012461
1210    0.215092    0.385624    -2.60396  0.000177955
1220    0.212269    0.383414    -3.61345  0.000255223
1230    0.209988    0.381628    -2.45895  0.000226718
1240    0.207735    0.379865    -3.01199  0.000138064
1250    0.207226    0.379467    -4.31147  0.000123026
1260    0.205274    0.377939    -4.50381  0.000149005
1270    0.204246    0.377134     -4.3361  0.000116704
1280     0.20294    0.376112    -4.93781  0.000144514
1290    0.201356    0.374872    -4.98547  0.00012585
1300    0.200423    0.374142     -4.3847  0.000140004
1310    0.198556     0.37268    -5.10636  0.00018697
1320    0.196684    0.371215    -5.92408  0.000164902
1330    0.195258    0.370099    -3.73518  0.000104631
1340    0.194591    0.369577    -5.27475  0.000103192
1350    0.193194    0.368483     -5.8045  0.000212795
1360    0.190335    0.366246    -4.12117  0.000159308
1370    0.190008     0.36599    -4.24174  0.000161579
1380    0.187104    0.363716    -4.62608  0.000173987
1390    0.186528    0.363266    -4.19403  8.73014e-05
1400    0.185358     0.36235     -5.5168  0.000153849
1410    0.183451    0.360857     -3.7612  0.000157655
1420    0.182205    0.359882    -4.26653  0.000191323
1430    0.179625    0.357862    -4.19405  0.00026707
1440    0.176863    0.355701    -3.68884  0.000151879
1450    0.176587    0.355485    -3.54496  8.73543e-05
1460    0.175116    0.354333    -3.06433  0.000119141
1470    0.174204     0.35362    -4.09821  0.00011243
1480    0.172867    0.352573    -4.67562  0.000132052
1490    0.171563    0.351552    -4.05111  0.000174728
1500    0.169373    0.349838     -4.1227  0.000261698
1510    0.166329    0.347455    -4.14608  0.000163165
1520     0.16611    0.347284    -4.74831  0.000142454
1530     0.16348    0.345225    -3.97849  0.000137344
1540    0.163363    0.345133     -3.7863   9.697e-05
1550    0.161541    0.343707    -4.12308  0.00022155
1560    0.158932    0.341665     -4.6278  0.000141927
1570    0.158702    0.341486     -5.2054  5.50881e-05
1580     0.15783    0.340803    -5.56692  8.19445e-05
1590    0.157063    0.340203    -5.42274  2.85484e-05
1600    0.157259    0.340356    -5.95256  0.000101995
1610    0.155023    0.338606    -7.01028  0.000146855
1620    0.154322    0.338057    -5.03771  0.000122223
1630    0.152579    0.336693    -5.54314  0.00014398
1640    0.151442    0.335803    -5.92821  0.000144354
1650    0.149692    0.334433    -6.45707  0.000137478
1660    0.148693    0.333651    -6.09625  0.00010542
1670    0.147583    0.332782    -5.76046  8.22239e-05
1680    0.147048    0.332364    -7.10748  7.34344e-05
1690    0.146115    0.331633    -6.21813  0.000118787
1700    0.144672    0.330504    -4.84709  0.000173341
1710    0.142648    0.328919    -6.67528  0.000220828
1720    0.140256    0.327047    -5.85768  0.000237677
1730    0.137894    0.325199    -6.45869  0.00014016
1740    0.137453    0.324853    -6.91629  9.6976e-05
1750    0.135955     0.32368    -7.03697  0.00016997
1760    0.134053    0.322192    -7.37298  0.000150305
1770    0.132949    0.321327    -6.12266  9.23142e-05
1780    0.132207    0.320747    -6.48379  9.43832e-05
1790    0.131061     0.31985    -6.62849  0.00013118
1800    0.129583    0.318693    -6.70066  0.000127818
1810    0.128505    0.317849     -6.3158  8.04663e-05
1820    0.127974    0.317434    -6.29148  4.58091e-05
1830    0.127589    0.317132    -6.00295  3.12291e-05
1840     0.12735    0.316945    -6.70076  9.20437e-05
1850    0.125748    0.315691    -6.09956  0.000136438
1860    0.124621    0.314809    -6.67674  8.88143e-05
1870    0.123971      0.3143    -7.06146  1.88466e-05
1880    0.124244    0.314514    -5.88304  -5.10737e-06
1890    0.124074     0.31438    -5.83475  3.18896e-05
1900    0.123606    0.314014    -5.81075  2.82608e-05
1910    0.123508    0.313938    -6.74915  3.20643e-05
1920    0.122965    0.313513    -7.63871  3.21176e-05
1930    0.122866    0.313435    -7.49532  9.36482e-05
1940    0.121092    0.312046    -7.10999  2.85387e-05
1950    0.122295    0.312988    -7.56764  -3.46497e-05
1960    0.121785    0.312589    -7.18289  9.03454e-05
1970    0.120488    0.311574    -7.51972  0.000133561
1980    0.119114    0.310498    -7.68787  1.58809e-05
1990    0.120171    0.311326    -6.91878  4.80711e-06
2000    0.119017    0.310423     -7.3757  0.000122994
2010    0.117711      0.3094    -5.98062  0.000155266
2020    0.115912    0.307992    -5.88417  4.26549e-05
2030    0.116858    0.308732    -6.19756  5.22956e-06
2040    0.115808     0.30791    -6.75032  0.000120249
2050    0.114453     0.30685    -5.81254  0.000137556
2060    0.113056    0.305757    -5.04305  6.03214e-05
2070    0.113246    0.305906    -5.06758  7.94977e-05
2080    0.111466    0.304512    -5.54824  0.000157354
2090    0.110099    0.303442    -5.33167  2.29418e-05
2100    0.111008    0.304153    -5.76532  -3.48762e-06
2110    0.110169    0.303497    -4.63548  0.00017919
2120    0.107424    0.301348    -4.22594  0.000202419
2130    0.106121    0.300328    -5.06758  6.55644e-05
2140    0.106113    0.300322    -4.25033  6.00666e-05
2150    0.104919    0.299388    -3.84105  1.23095e-05
2160    0.105866    0.300129    -4.39492  6.42184e-05
2170    0.103635    0.298382    -3.88914  0.000196567
2180    0.101935    0.297052    -4.80345  0.000126027
2190    0.101114    0.296409    -4.39438  7.25359e-05
2200    0.100484    0.295916    -4.27431  2.84418e-05
2210    0.100546    0.295964    -5.14011  4.39875e-05
2220   0.0996045    0.295228    -5.23632  9.23041e-05
2230   0.0986994    0.294519    -4.53837  1.7143e-05
2240   0.0992616    0.294959    -3.76949  9.66709e-05
2250    0.096766    0.293006    -4.51522  0.000139374
2260   0.0964742    0.292777    -4.29844  3.1149e-05
2270    0.096143    0.292518     -4.2265  4.09473e-05
2280   0.0956552    0.292136    -4.46749  0.000115021
2290   0.0938426    0.290718    -4.80406  0.000171731
2300   0.0922206    0.289448    -4.56382  6.29179e-05
2310   0.0925843    0.289733    -3.98693  9.64373e-05
2320   0.0902919    0.287938    -3.64998  0.000151287
2330   0.0895585    0.287364    -4.94927  0.000106723
2340   0.0881574    0.286268    -4.61254  0.000120704
2350   0.0871444    0.285475    -4.13139  0.000101406
2360   0.0861293     0.28468    -3.91544  0.000154744
2370   0.0840495    0.283052    -4.15567  6.05728e-05
2380   0.0849178    0.283732    -3.02604  5.3047e-05
2390   0.0829886    0.282222    -2.90536  9.24867e-05
2400   0.0830681    0.282284    -3.31473  7.9022e-05
2410   0.0814082    0.280985    -2.59321  0.000160279
2420   0.0798625    0.279775     -2.3286  0.000142867
2430   0.0785508    0.278748    -3.69948  4.40255e-05
2440    0.078982    0.279086    -3.65168  8.00308e-05
2450   0.0769502    0.277495     -3.6756  0.000153703
2460    0.075908    0.276679    -3.29057  9.24088e-05
2470    0.075102    0.276049    -3.02644  8.06972e-05
2480    0.074294    0.275416    -3.77257  7.69198e-05
2490   0.0735636    0.274844    -3.55626  0.000121142
2500   0.0718712     0.27352    -3.38766  0.000101358
2510   0.0715365    0.273258    -3.24357  0.000133826
2520   0.0691947    0.271425    -3.60413  0.000126021
2530    0.069016    0.271285    -3.41172  8.4259e-05
2540   0.0675095    0.270106    -3.36394  0.000142804
2550     0.06616    0.269049     -3.0752  2.2186e-05
2560   0.0670658    0.269758    -2.97965  9.51026e-05
2570   0.0642579    0.267561     -3.9168  8.70347e-05
2580   0.0653251    0.268396    -3.05151  -8.66216e-05
2590   0.0659903    0.268917    -2.88355  0.000130063
2600   0.0627238     0.26636    -3.24364  0.000115935
2610   0.0636716    0.267102    -2.52254  2.30275e-05
2620   0.0622633    0.265999    -2.42628  8.80741e-05
2630   0.0619102    0.265723    -1.96957  3.74159e-05
2640   0.0615149    0.265414    -1.92153  0.000172264
2650   0.0584649    0.263026    -2.04144  0.000209343
2660   0.0573281    0.262136     -1.6808  3.80879e-05
2670   0.0577031     0.26243     -2.2345  4.44425e-05
2680   0.0564392    0.261441    -1.87382  0.000136821
2690   0.0549667    0.260288    -2.04191  0.000161855
2700   0.0532021    0.258907    -3.46075  0.000143746
2710   0.0520918    0.258038    -2.18616  0.000123573
2720   0.0507307    0.256972    -2.61883  0.00013423
2730   0.0494072    0.255936    -2.85946  7.6722e-05
2740   0.0491962    0.255771    -2.16238  2.50153e-06
2750   0.0493571    0.255897    -2.74056  0.000145538
2760   0.0462855    0.253493    -2.09051  0.000158169
2770   0.0461937    0.253421    -2.74007  -1.36763e-05
2780    0.046559    0.253707     -1.8746  -1.16052e-05
2790   0.0464259    0.253603    -2.16343  9.46151e-05
2800   0.0446667    0.252226    -2.06665  6.3457e-05
2810   0.0451567    0.252609    -2.45206  -2.18986e-05
2820   0.0451047    0.252569    -1.97138  6.38148e-05
2830   0.0438804     0.25161     -2.4282  7.22941e-05
2840   0.0436588    0.251437    -2.76505  2.00957e-05
2850   0.0434785    0.251296    -2.38056  4.53772e-05
2860   0.0427512    0.250726    -2.18778  5.80961e-05
2870   0.0423166    0.250386     -3.0058  3.72007e-05
2880   0.0420072    0.250144    -3.07842  -3.44403e-05
2890   0.0430054    0.250925    -2.40524  4.58702e-05
2900   0.0410898    0.249426    -3.03048  5.21392e-05
2910   0.0419626    0.250109    -2.98289  3.73982e-06
2920    0.041015    0.249367    -2.86256  6.72949e-05
2930   0.0406167    0.249056     -3.6803  1.65101e-05
2940   0.0406848    0.249109    -2.30921  -1.32082e-05
2950   0.0408809    0.249262    -3.48838  8.07177e-06
2960   0.0405234    0.248983    -3.34385  4.00784e-05
2970   0.0400793    0.248635     -3.6807  -4.17791e-07
2980   0.0405317    0.248989    -3.56016  -8.92673e-06
2990   0.0402578    0.248775    -3.36789  5.53014e-05
3000   0.0394257    0.248123    -3.07929  0.00012197
3010   0.0378184    0.246865    -3.05487  7.28166e-05
3020   0.0379694    0.246984    -2.91076  -7.53837e-05
3030   0.0393261    0.248046    -2.52649  -2.37672e-05
3040   0.0384447    0.247356    -2.16569  6.45135e-05
3050   0.0380358    0.247036    -2.91161  6.47316e-05
3060   0.0371501    0.246342    -2.83917  8.43711e-05
3070   0.0363484    0.245715    -2.16606  3.04081e-05
3080   0.0365419    0.245866     -2.8392  7.40018e-05
3090   0.0348684    0.244556    -2.26174  5.01661e-05
3100   0.0355386    0.245081    -1.75718  -1.05001e-05
3110   0.0350784    0.244721    -2.64702   9.018e-06
3120   0.0353583     0.24494    -2.57509  -1.27483e-05
3130   0.0353334     0.24492    -2.71969  -1.49956e-05
3140   0.0356582    0.245174    -1.97405  9.8891e-05
3150   0.0333555    0.243372    -2.26268  0.000134091
3160   0.0329763    0.243075    -1.10816  5.01443e-06
3170   0.0332552    0.243294    -1.87796  8.20752e-05
3180   0.0313348     0.24179    -1.80569  0.000168084
3190   0.0298936    0.240662    -2.43111  4.94608e-05
3200   0.0303456    0.241016    -1.92614  -1.87574e-05
3210   0.0302687    0.240956    -1.99868  3.64698e-05
3220   0.0296162    0.240445     -2.0706  6.97773e-05
3230   0.0288732    0.239864     -1.7342  3.89064e-05
3240   0.0288381    0.239836    -2.45596  7.0199e-05
3250   0.0274692    0.238765    -2.09492  6.13972e-05
3260   0.0276102    0.238875    -2.19189  2.8257e-05
3270   0.0269041    0.238322    -2.45635  6.62354e-05
3280   0.0262855    0.237838    -2.33621  1.72325e-05
3290   0.0265594    0.238053    -1.68672  3.92357e-06
3300    0.026207    0.237777    -2.62496  4.64985e-05
3310   0.0256294    0.237325    -2.45666  6.90777e-05
3320   0.0248254    0.236695    -1.61476  1.52878e-05
3330   0.0253237    0.237085    -1.63901  1.54288e-05
3340   0.0245169    0.236454    -1.51869  5.82417e-05
3350   0.0241588    0.236174    -2.04818  8.78293e-05
3360   0.0227603    0.235079    -2.60094  -4.76409e-06
3370   0.0242541    0.236248    -2.79386  -2.04288e-05
3380   0.0231688    0.235399     -2.2164  3.37846e-05
3390   0.0235784    0.235719    -2.38517  4.76398e-05
3400    0.022216    0.234653    -2.76977  7.49858e-05
3410   0.0220787    0.234545    -2.45689  1.60208e-05
3420   0.0218956    0.234402    -2.19236  6.40195e-05
3430   0.0207983    0.233543    -2.69755  5.49901e-05
3440   0.0207958    0.233541    -1.90385  3.92025e-05
3450   0.0200143    0.232929    -1.51901  0.00010352
3460   0.0187254    0.231921    -2.31243  4.63443e-05
3470   0.0190874    0.232204    -1.92827  2.82009e-05
3480   0.0181614    0.231479    -1.27873  -4.32612e-05
3490   0.0199526    0.232881    -1.92884  -5.01214e-05
3500   0.0191638    0.232264    -2.28963  7.20674e-05
3510   0.0185113    0.231753    -2.24138  5.60971e-05
3520   0.0180419    0.231386    -2.00117  3.54113e-05
3530    0.017803    0.231199    -2.09739  3.01935e-06
3540   0.0179815    0.231338    -1.47229  1.93427e-05
3550   0.0174162    0.230896    -1.78489  6.12876e-05
3560   0.0167558    0.230379    -2.67497  5.21307e-05
3570   0.0163736     0.23008    -2.45812  -2.94849e-05
3580   0.0173455     0.23084    -2.77137  1.73506e-05
3590   0.0160266    0.229808     -2.7226  0.000120379
3600   0.0149379    0.228956      -2.843  4.79796e-05
3610    0.015067    0.229057    -2.79539  2.94145e-05
3620   0.0143496    0.228495    -2.86714  -3.53144e-06
3630   0.0151376    0.229112    -2.02583  9.09429e-05
3640   0.0125307    0.227072    -2.79527  0.000176023
3650   0.0116171    0.226357     -3.0116  6.7845e-05
3660   0.0111738     0.22601    -2.19382  -6.43451e-07
3670     0.01163    0.226367    -2.57877  5.40372e-05
3680   0.0100931    0.225164    -3.01186  5.40449e-05
3690   0.0105491    0.225521    -2.43471  6.38976e-05
3700  0.00881513    0.224163     -2.1459  0.000130729
3710  0.00793452    0.223474    -1.97732  3.80232e-05
