Time   C(t)   
ps   
0           1           1  7.21607e-10   0.0565984
10    0.403051    0.896535   -0.233476   0.0295883
20    0.408233    0.897433     1.40875  0.00257827
30    0.351485    0.887597    0.865534  0.00103025
40    0.387628    0.893862    -1.05566  -0.00113528
50    0.374191    0.891533    0.862591  0.000180113
60    0.384026    0.893237    0.314825  0.00111447
70    0.351902    0.887669    -1.32767  0.000336465
80    0.377297    0.892071    0.863126  -0.00176312
90    0.387164    0.893781     1.41009  -0.000363891
100    0.384574    0.893332   -0.233476  0.00236657
110    0.339833    0.885578     1.68504  0.00174414
120    0.349692    0.887286     1.13808  -0.000830536
130    0.356443    0.888457   -0.231335  -0.000206043
140    0.353812    0.888001    -1.05512  2.82332e-05
150    0.355879    0.888359   0.0404068  -0.000363804
160    0.361089    0.889262     -2.1528  0.000185342
170    0.352172    0.887716    0.313219  0.000185049
180    0.357388     0.88862    -4.61774  0.000264849
190    0.346875    0.886798     1.13621  0.000422077
200    0.348946    0.887157    -2.42481  0.000344717
210     0.33998    0.885603     2.23388  -0.00107584
220    0.370463    0.890887    -2.15092  -0.000602035
230    0.352021     0.88769    -3.79529  0.000976054
240    0.350942    0.887503   -0.508964  0.000266534
250     0.34669    0.886766    0.862858  0.000821681
260    0.334508    0.884655    -1.05432  -4.98652e-05
270    0.347688    0.886939    -2.42641  -0.00052509
280     0.34501    0.886475   0.0382661  0.000824519
290    0.331197    0.884081    0.588707  0.00162144
300    0.312581    0.880854     3.05579  0.000270247
310    0.325792    0.883144    -1.05486  -0.00188073
320    0.350196    0.887374    0.862055  -0.000447112
330    0.334735    0.884694     1.68558  0.00170757
340    0.316044    0.881455   -0.780171  0.00107093
350    0.313316    0.880982    0.863393  0.000193164
360    0.312181    0.880785   -0.781241  0.000514327
370    0.303029    0.879199    -4.34386  -0.000769013
380    0.327561    0.883451    -1.60503  -0.000688542
390      0.3168    0.881586   -0.232406  3.19302e-05
400    0.326923     0.88334   -0.234011  0.000274615
410    0.311308    0.880634    0.315895  0.00043494
420    0.318224    0.881832     -2.1528  -0.000369547
430    0.318699    0.881915    -0.50843  -0.000693685
440    0.332098    0.884237      2.7787  0.000598803
450    0.306723    0.879839     1.95839  0.00108362
460    0.310425    0.880481     1.68424  3.43382e-05
470    0.306036     0.87972     2.78057  0.000844842
480    0.293528    0.877552   -0.781509  0.00027802
490    0.300476    0.878756     1.41062  0.000929715
500    0.274934    0.874329     1.13701  0.000604564
510    0.288384     0.87666    0.860717  -0.00191643
520    0.313263    0.880972   -0.784185  -4.50149e-05
530    0.289285    0.876817    0.040942  0.000523525
540    0.302792    0.879158   -0.507359  0.000118178
550    0.286921    0.876407    -1.32901   0.0018341
560     0.26611      0.8728     1.96053  0.000282387
570    0.281273    0.875428     1.68451  -0.000452614
580    0.275162    0.874369   -0.508161  0.000857824
590    0.264117    0.872454     1.68584  -0.000454558
600    0.284254    0.875944    0.860717  -0.000535992
610    0.274837    0.874312      2.7779  -4.50149e-05
620    0.285154    0.876101    0.587102  0.00102695
630    0.254298    0.870752     0.31429  0.000944519
640    0.266264    0.872826   -0.235081  0.00053594
650    0.243579    0.868895     1.41143  3.93584e-05
660    0.265476     0.87269     1.41089  -0.00144745
670    0.272528    0.873912     1.41116  0.000867882
680    0.248119    0.869681     3.05365  0.000785142
690    0.256825     0.87119   -0.235349  -0.000871597
700    0.265551    0.872703    -2.15333  0.000206766
710     0.25269    0.870474    0.586834  0.000788375
720    0.249783     0.86997   -0.508429  0.00112374
730    0.230215    0.866578    -1.32954  0.000208244
740    0.245618    0.869248    0.861252  -0.00129163
750    0.256048    0.871056    0.861252  -4.15422e-05
760    0.246449    0.869392     1.41009  0.00137918
770    0.228464    0.866275    -2.15333  0.00121427
780    0.222164    0.865183    -1.32874  -0.000878011
790    0.246024    0.869318    -1.05593  -0.0014656
800    0.251476    0.870263    -1.60476  0.000462244
810    0.236779    0.867716     -1.0578  0.00155532
820    0.220369    0.864872     1.41036  0.000632609
830    0.224127    0.865523   -0.234814  -0.000460456
840    0.229578    0.866468    0.588173  -3.95648e-05
850    0.224918     0.86566   -0.781776  0.000297605
860    0.223626    0.865436   -0.507626  4.48264e-05
870    0.224022    0.865505    -4.34439  -0.000378231
880    0.231191    0.866747    -1.60476  0.000638196
890    0.211258    0.863293    -2.70003  -0.000295043
900    0.237092     0.86777     2.22906  4.65117e-05
910    0.210328    0.863131     1.68424  0.00140399
920    0.209012    0.862903    0.314022  0.00038712
930    0.202585    0.861789   0.0406741  -0.000464255
940    0.218297    0.864513    -2.70083  -0.00072006
950    0.216986    0.864286    -1.87865  0.000216739
960    0.213962    0.863761    0.588172  0.000388169
970    0.209223     0.86294     -1.6045  -0.000124575
980    0.216454    0.864193   -0.234814  -0.000209878
990    0.213421    0.863667    0.586032  0.000217959
1000    0.212095    0.863438    -1.60476  0.000819652
1010    0.197028    0.860826     -1.6045  0.000906587
1020    0.193963    0.860295   -0.781777  0.000565051
1030    0.185727    0.858867   -0.509232  -0.000898523
1040    0.211933     0.86341    -1.05807  -0.00055365
1050      0.1968    0.860787    0.588172  -0.000125521
1060    0.214444    0.863845     -1.6061  0.000135459
1070     0.19409    0.860317    0.311613  0.000825911
1080    0.197925    0.860982   -0.235885  0.00117562
1090    0.170578    0.856242    -2.15146  0.000309228
1100    0.191741     0.85991   -0.234546  -0.000468829
1110    0.179955    0.857867    0.587905  0.000745267
1120    0.176836    0.857326     1.95678  -0.000296917
1130    0.185893    0.858896     3.32566  -0.000209792
1140    0.181031    0.858054     1.13406  0.000225112
1150    0.181391    0.858116    0.586567  5.1292e-05
1160    0.180006    0.857876     2.23013  0.000663198
1170    0.168127    0.855817    -1.33141  0.00110173
1180    0.157971    0.854057   -0.234814  5.28738e-05
1190    0.167069    0.855634     1.95732  0.000141839
1200    0.155134    0.853565    0.587102  0.00101918
1210    0.146686    0.852101    0.313487  -0.000472939
1220    0.164593    0.855205    0.860718  -0.000560563
1230    0.157897    0.854044     1.13406  -0.000387069
1240    0.172334    0.856546    -0.78472  0.00181888
1250    0.121519    0.847739   0.0390688  0.00181931
1260    0.135948     0.85024   -0.510035  -0.000648668
1270    0.134493    0.849987    0.585496  -0.00118225
1280    0.159593    0.854338     2.77763  -0.000385796
1290    0.142209    0.851325     1.40929  0.00191787
1300    0.121236     0.84769     2.23254  0.000767277
1310    0.126863    0.848665    -2.42775  -0.00109705
1320    0.143177    0.851493     -1.0594  -0.00109896
1330    0.148842    0.852475    0.585497  0.000502376
1340    0.133129    0.849751     1.40822  0.00201939
1350    0.108455    0.845474      2.2312  0.000594092
1360    0.121247    0.847692    0.312417  -0.000744098
1370    0.123337    0.848054   0.0371963  0.000238541
1380    0.116477    0.846865      1.1354  0.000866215
1390    0.106012    0.845051     2.23281  0.00068856
1400    0.102705    0.844478   -0.508964  0.000151365
1410    0.102985    0.844526     1.40714  -0.000297914
1420    0.108664    0.845511    0.585764  0.000602397
1430    0.090937    0.842438     2.77923  0.000422043
1440    0.100223    0.844048   0.0385338  -0.00165189
1450    0.123975    0.848164     2.22906  -2.78555e-05
1460     0.10078    0.844144    -2.42802  0.00123626
1470   0.0992496    0.843879   0.0371958  0.000243837
1480   0.0959031    0.843299   -0.236151  -0.000209259
1490    0.103435    0.844604     1.40795  0.000244903
1500   0.0910051     0.84245    0.311614  6.25025e-05
1510    0.102185    0.844388     2.77816  0.000701335
1520   0.0769784    0.840019     1.95705  0.00124759
1530   0.0772328    0.840063    0.586031  -0.00102915
1540   0.0975614    0.843586    0.859915  -0.00130445
1550    0.103322    0.844585     2.77656  0.000520946
1560   0.0871425    0.841781   0.0363932  0.00015458
1570     0.10023    0.844049     2.50294  -0.000210136
1580   0.0913452    0.842509    -1.05967  0.00125674
1590   0.0750955    0.839693    0.585497  -0.000302953
1600   0.0974042    0.843559     1.40581  -0.000577448
1610   0.0866445    0.841694    0.857773  0.00116944
1620   0.0740154    0.839505     2.23013  0.000434337
1630   0.0779578    0.840189   -0.511104  -0.000579391
1640   0.0856032    0.841514    -1.33382  -2.58606e-05
1650    0.078475    0.840278   -0.786593  0.00154676
1660    0.054668    0.836152     2.77816  0.00043738
1670   0.0697274    0.838762     1.95464  -0.000208691
1680   0.0588418    0.836875     1.40661  6.79188e-05
1690    0.068369    0.838527     3.05044  -0.0012328
1700   0.0834979    0.841149     1.13139  -0.000397334
1710   0.0763157    0.839904     1.67969  0.000159687
1720   0.0803042    0.840595    -1.05807  0.000347504
1730   0.0693656    0.838699      4.1449  0.00193617
1740   0.0415808    0.833884    -1.33329  0.00119126
1750   0.0455404     0.83457    0.309741  -0.00152071
1760    0.071995    0.839155     2.77415  -0.00180442
1770   0.0816288    0.840825     1.67862  0.000725734
1780   0.0574803    0.836639     1.40634  0.00166573
1790   0.0483142    0.835051     2.50134  -0.000494449
1800   0.0673693    0.838353     1.95357  -0.000776803
1810   0.0638503    0.837743     2.22719  -0.00011952
1820   0.0697597    0.838768   0.0347876  0.000920206
1830   0.0454461    0.834554   -0.785523  0.00101522
1840   0.0494552    0.835248     1.13192  -0.000590825
1850   0.0572626    0.836602    -1.06208  -0.000781651
1860   0.0650883    0.837958    -1.60931  0.000830519
1870   0.0406523    0.833723    -1.06128  0.00102069
1880   0.0446744     0.83442   -0.240166  -0.000307543
1890   0.0468031    0.834789      -1.884  -0.00049904
1900   0.0546552     0.83615    0.856168  7.26301e-05
1910   0.0453505    0.834537    0.309206  0.00131372
1920   0.0283808    0.831596    -1.60824  0.000933841
1930   0.0266737      0.8313    -1.60904  -0.00126568
1940   0.0536944    0.835983   -0.787664  -0.000499917
1950   0.0366721    0.833033    -1.60931  0.000168181
1960   0.0503308      0.8354   -0.512442  -0.000117869
1970   0.0390294    0.833441   0.0347875  0.000169023
1980   0.0469503    0.834814   -0.788734  -0.000214796
1990   0.0433253    0.834186    -2.70511  0.000555886
2000   0.0358326    0.832887    0.308671  0.00104009
2010   0.0225236    0.830581   -0.786058  0.000655357
2020   0.0227255    0.830616   -0.238827  -0.000116992
2030   0.0248635    0.830986    -1.06155  -0.000505041
2040   0.0328263    0.832366   -0.787396  -0.000214727
2050    0.029158     0.83173    -2.43123  0.00133962
2060  0.00603394    0.827723    0.857506  0.00114709
2070  0.00621621    0.827754     -3.7993  0.000371748
2080  -0.00140102    0.826434   0.0363931  -0.000310965
2090   0.0124355    0.828832   -0.786326  0.000471271
2100  -0.0108264      0.8248    -1.33436  0.000861555
2110  -0.00479559    0.825846    -2.43069  8.18465e-05
2120  -0.0124634    0.824517    -1.60851  -0.000801632
2130    0.011237    0.828624    -2.43176  -0.000310604
2140  -0.00625129    0.825593    -1.61038  0.000767707
2150  -0.00411709    0.825963   0.0345197  0.000672431
2160  -0.0196999    0.823262    -1.06021  -0.000411502
2170  0.00411296     0.82739    0.856168  8.35832e-05
2180  -0.0213716    0.822973    -1.06128  0.000772641
2190  -0.0113399    0.824711    -1.06074  0.000875826
2200  -0.0388881    0.819937    -2.70484  -0.000313527
2210  -0.00506933    0.825798   -0.514584  -0.00160025
2220  -0.00688302    0.825484    0.855365  0.000678329
2230  -0.0186359    0.823447    -2.15842  8.26031e-05
2240  -0.00853508    0.825197    0.583088  0.00127952
2250  -0.0442263    0.819011    -1.88346  -0.000116459
2260  -0.00620589    0.825601    -2.15868  -0.000411554
2270  -0.0359953    0.820438     -2.9798  -0.000217048
2280  -0.00186493    0.826353    -1.06315  -0.0012147
2290  -0.0117013    0.824649     -1.3373  8.26031e-05
2300  -0.00351699    0.826067     -1.8848  0.000184361
2310  -0.0153885     0.82401    -1.06369  8.30501e-05
2320   -0.005178    0.825779     0.30867  0.000587868
2330  -0.0271459    0.821972    -4.89885  0.000486488
2340  -0.0149078    0.824093    -1.06155  0.00028832
2350  -0.0329123    0.820972   -0.787129  0.000691242
2360  -0.0287326    0.821697    -1.61012  -0.000924384
2370  -0.0144246    0.824177    0.580144  -0.000622171
2380  -0.0162892    0.823853    0.308403  -0.000523388
2390  -0.00395683    0.825991    -1.61199  0.000187147
2400  -0.0200321    0.823205    -1.33757  0.00191478
2410  -0.0422524    0.819353    -3.25609  0.000493693
2420   -0.029906    0.821493    -1.06181  -0.000318531
2430  -0.0358818    0.820458    -2.70645  0.000189898
2440  -0.0337039    0.820835    -2.97873  -0.000729208
2450  -0.0212976    0.822985    -3.25475  -0.00175427
2460  0.00138142    0.826916    -2.16002  0.000702143
2470  -0.0353405    0.820551    -2.70591  0.000186803
2480  -0.00235463    0.826269   -0.515386  -0.000116494
2490  -0.0330106    0.820955    -3.80118  0.000908238
2500  -0.0205194     0.82312    -3.52836  -0.00217837
2510   0.0105568    0.828506    -1.88614  -0.000118815
2520  -0.0181431    0.823532    -4.07667  0.00215028
2530  -0.0324487    0.821053    -3.25421  8.73832e-05
2540  -0.0198908    0.823229    -4.62497  -0.000635858
2550  -0.0197315    0.823257    -3.52837  -0.000430898
2560  -0.0112728    0.824723    -3.25475  -0.000431482
2570  -0.0111019    0.824753    -2.43444  0.00112737
2580  -0.0338201    0.820815    -2.97926   0.0012331
2590  -0.0357638    0.820478    -3.25475  -0.00126592
2600  -0.00850172    0.825203     -2.9814  -0.00158077
2610  -0.00414838    0.825958     -2.9814  0.00207455
2620  -0.0499927    0.818012    -4.07533  0.00186725
2630  -0.0414934    0.819485    -2.43043  -0.000746162
2640  -0.0350695    0.820598    -4.35028  -0.000433185
2650  -0.0328297    0.820987    -4.35162  -0.000960562
2660  -0.0158583    0.823928    -4.89992  0.000196243
2670  -0.0367546    0.820306    -2.43257  0.000721556
2680  -0.0302894    0.821427    -3.80359  -0.000753022
2690  -0.0216941    0.822917    -2.70779  -0.000332011
2700  -0.0236492    0.822578     -1.3373  -0.000651299
2710  -0.00866816    0.825174    -2.98167  0.00136281
2720  -0.0509054    0.817854    -5.99411  0.000194609
2730  -0.0125603      0.8245    -4.89992  -0.00160687
2740   -0.018768    0.823424    -3.80332  -0.000336723
2750  -0.00582589    0.825667    -3.53024   0.0010497
2760  -0.0397619    0.819785    -2.97899  0.000302024
2770  -0.0118664     0.82462   -0.790072  -0.000441197
2780   -0.030938    0.821314    -2.43417  0.000839099
2790  -0.0286483    0.821711     -2.4339  0.000628447
2800  -0.0435069    0.819136    -2.70618  0.000199527
2810  -0.0326389     0.82102    -1.88534  0.000201882
2820  -0.0475446    0.818436    -4.62416  -0.00109131
2830  -0.0108127    0.824803    -1.61172  -0.00119859
2840  -0.0235728    0.822591   -0.240969  0.00127779
2850  -0.0363684    0.820373   -0.240701  0.00138948
2860  -0.0513625    0.817774     -1.3357  0.000310638
2870  -0.0425812    0.819296    -2.98006  -0.00185525
2880  -0.0142575    0.824206    -4.62657  -0.0012077
2890  -0.0184272    0.823483    -1.06315  0.000417486
2900  -0.0226072    0.822758    -2.43417  0.00139858
2910  -0.0463987    0.818635    -3.25395  0.000965032
2920  -0.0419078    0.819413    0.305993  -0.00132325
2930  -0.0199338    0.823222    -2.43444  -0.000888344
2940  -0.0241409    0.822493    -2.70752  -0.000126209
2950  -0.0174096    0.823659    -1.61172  0.00108037
2960  -0.0457484    0.818747    -1.06262  0.000971119
2970   -0.036832    0.820293    0.307331  -0.000342999
2980  -0.0388884    0.819936     -1.3381  0.00119697
2990  -0.0607714    0.816144      -1.884  -0.000344976
3000  -0.0319889    0.821132    -1.61172  -0.00177801
3010  -0.0252111    0.822307    -1.33837  -0.000789355
3020  -0.0162018    0.823869    -2.43524  0.000648358
3030  -0.0381783     0.82006    -1.88641  0.00086986
3040   -0.033599    0.820853    0.306529  -0.00045865
3050  -0.0290053    0.821649    -0.51512   0.0004299
3060   -0.042197    0.819363   -0.240701  0.00132103
3070  -0.0554259     0.81707     0.58175  0.000655443
3080  -0.0553059    0.817091    -1.06262  -0.000347074
3090  -0.0484844    0.818273    -2.43364  -0.00213757
3100  -0.0125545    0.824501    -1.88694  -0.000461126
3110  -0.0392619    0.819872    -3.53051  -0.000467058
3120  -0.00321334     0.82612    0.852154  -0.000463877
3130  -0.0299844     0.82148   -0.516725  0.000768136
3140  -0.0185761    0.823457    -1.33971  -0.000917248
3150  -0.0116394    0.824659    -1.33971  -0.000807478
3160  -0.00242651    0.826256    -2.43604  0.000998717
3170  -0.0316137    0.821197    -1.33811  0.000659277
3180   -0.015612    0.823971    -1.88641  9.77688e-05
3190  -0.0335691    0.820858    -1.61172  0.000549627
3200  -0.0266046    0.822066    -1.06503  -0.00194807
3210  0.00539224    0.827611    -0.51833  0.000211305
3220  -0.0308307    0.821333   -0.516457  0.00180322
3230  -0.0306722    0.821361   -0.242307  0.00112613
3240  -0.0533533    0.817429    0.306797  -0.000358938
3250  -0.0234934    0.822605    0.577736  -0.00184505
3260  -0.0164522    0.823825    -2.16216  -0.000705204
3270  -0.00938931    0.825049    -1.33891  0.00101576
3280  -0.0367673    0.820304   -0.515921  0.000556058
3290  -0.0205105    0.823122    -0.51726  -0.00116726
3300  -0.0134221     0.82435    0.852154  -0.00105603
3310  0.000610066    0.826782    -1.88908  -0.000596465
3320  -0.00149284    0.826418    0.303853  0.00240966
3330  -0.0475831    0.818429    -2.16002  0.000211339
3340  -0.00571963    0.825685   -0.244715  -0.0010583
3350  -0.0264172    0.822098    -1.06663  0.000561388
3360  -0.0169474    0.823739    0.303586  -0.000482551
3370  -0.0167662    0.823771    -1.33944  -0.00025142
3380   -0.011919    0.824611    -1.88801  0.000682352
3390  -0.0304132    0.821405    -2.70939  0.000214795
3400  -0.0162149    0.823866   0.0280971  -0.00083621
3410   -0.013689    0.824304    -2.16216  0.000568163
3420  -0.0275781    0.821897    -2.70913  0.000920997
3430  -0.0321089    0.821112    -1.33837  -0.00119355
3440  -0.00370717    0.826034   -0.519401  -0.000958945
3450    -0.01293    0.824436      3.3171  -0.000374689
3460   0.0037866    0.827333    0.850281  -0.000137334
3470  -0.0101834    0.824912   -0.244715  0.000688663
3480  -0.00998665    0.824946    0.303585  -0.000256819
3490  -0.00504697    0.825802     1.39938  -0.00025718
3500  -0.00484304    0.825837     1.67407  0.000336362
3510  -0.0117742    0.824636     3.59205  0.000575144
3520  -0.0163459    0.823844   -0.244715  0.000457773
3530  -0.0209297    0.823049   0.0294351  -0.00205031
3540   0.0246602    0.830951    -2.71234  -0.00145436
3550  0.00815748    0.828091    -2.16377  0.00081384
3560  0.00838342     0.82813    -2.43792   0.0011779
3570  -0.0154006    0.824007   0.0294355  0.000818912
3580  -0.00799482    0.825291   -0.794087  -0.00110295
3590  0.00665845    0.827831     1.67166  0.000100314
3600  -0.0100011    0.824943     -1.0669  0.000339783
3610  -0.000137213    0.826653     2.76933  -0.000261995
3620  -0.0047612    0.825852    0.576397  -0.000748706
3630   0.0148369    0.829248    -1.34265  0.000343171
3640  -0.0116246    0.824662    0.576933  0.00167782
3650  -0.0187195    0.823432      1.6722  -0.000141598
3660  -0.00879265    0.825153     1.39912  -0.00136025
3670  0.00848556    0.828147     1.67139  -0.000875448
3680  0.00871631    0.828187     1.39751  0.000833184
3690  -0.00817812    0.825259    0.302782  0.000834456
3700  -0.00797281    0.825295    0.303853  -0.00137062
3710   0.0192343     0.83001      1.1239  -0.000881191
3720  0.00965101    0.828349     1.12443  -0.000271297
3730   0.0246602    0.830951     1.67032  0.000839649
3740  -0.00714197    0.825439     1.39858  0.000344512
3750     0.01777    0.829757     2.76826  -0.00063952
3760  0.00564844    0.827656     1.39885  9.89895e-05
3770   0.0157902    0.829414     1.94474  -0.000147152
3780  0.00859148    0.828166   -0.246856  0.000596775
3790   0.0038547    0.827345     2.76799  0.00109698
3800  -0.0133482    0.824363     1.39965  -0.000771145
3810   0.0192776    0.830018     3.04161  -0.00114436
3820   0.0095389     0.82833     1.94501  0.00060011
3830   0.0072754    0.827938     0.57506  -0.00014925
3840   0.0125239    0.828847   0.0283649  -0.00165536
3850   0.0403827    0.833676   0.0259561  0.000478424
3860  0.00295542    0.827189   0.0286319  0.00123019
3870   0.0157788    0.829412     1.39698  -0.00178891
3880   0.0387337     0.83339     1.39751  0.000480264
3890  0.00617357    0.827747    0.575863  0.00237549
3900  -0.00877615    0.825156   -0.519134  0.000483359
3910  -0.00349361    0.826071    0.301979  -0.000656113
3920  0.00434612     0.82743   0.0280976  -0.00167538
3930   0.0300139    0.831879     3.04027  0.000231388
3940  -0.000281648    0.826628      2.2213  0.000737805
3950   0.0152578    0.829321     2.76746  0.000743995
3960  -0.0151616    0.824049     1.12497  0.000870737
3970  -0.0021569    0.826303     2.49384  -0.00066153
3980  -0.00193096    0.826342   0.0272947  -0.000536353
3990  0.00857016    0.828162     3.59045  -0.00105188
4000   0.0191067    0.829988     1.12336  -0.00131317
4010   0.0348336    0.832714    0.848139  0.000102807
4020   0.0170506    0.829632   -0.521541  0.000488311
4030   0.0250674    0.831021     1.39644  0.000233039
4040   0.0123898    0.828824    0.849211  0.00101055
4050  0.00485646    0.827518     1.67166  -0.00028519
4060   0.0180936    0.829813     2.21943  -0.000414614
4070   0.0131487    0.828956     0.84921  0.000104028
4080    0.016013    0.829452     1.94501  -0.000548045
4090   0.0241096    0.830855    0.848943  0.000104801
4100    0.013917    0.829089     1.94554  0.000889857
4110   0.0063125    0.827771     0.29984   0.0015496
4120   -0.017075    0.823717      1.6722  0.00142207
4130  -0.0221288    0.822841    -1.06717  -0.000811054
4140  -0.000853886    0.826529   -0.521006  -0.00199915
4150   0.0178542    0.829771     1.94554  -0.00187398
4160   0.0366256    0.833025    0.572117  -0.000953546
4170   0.0369252    0.833077     1.94367  0.00103106
4180   0.0160044    0.829451    0.574525  0.00222858
4190  -0.00764646    0.825351   -0.521274  -0.000292636
4200   0.0218571    0.830465     1.66899  -0.000555714
4210  0.00346782    0.827278    -1.06984  0.000373003
4220   0.0143971    0.829172    -3.26278  -0.000827217
4230   0.0200122    0.830145     1.39537  -0.000160495
4240    0.017607    0.829728    -1.34506  0.000778041
4250  0.00445135    0.827448     1.39564  0.000376442
4260   0.0100781    0.828424     1.94447  -2.48634e-05
4270  0.00494862    0.827534   0.0264917  -0.00151045
4280   0.0402871    0.833659     2.49197  -0.000160185
4290  0.00815233     0.82809    0.299839  0.000104182
4300   0.0382034    0.833298     1.66925  -0.000161303
4310   0.0113784    0.828649     1.66952  0.00173582
4320  0.00348707    0.827281     1.12283  -0.00138785
4330   0.0391354     0.83346    0.572115  -0.0013889
4340    0.031265    0.832096     1.12122   0.0010617
4350   0.0179013    0.829779    0.574258  0.000928184
4360   0.0127013    0.828878     1.39617  -0.000576124
4370   0.0294238    0.831777    0.847337  -0.000988314
4380   0.0324676    0.832304   0.0251541  -0.000442573
4390   0.0382753    0.833311     2.21622  -0.000306099
4400   0.0385896    0.833365    0.846802  0.000520877
4410   0.0278577    0.831505   -0.248194  -3.16208e-05
4420    0.039222    0.833475    0.298769  0.000663197
4430   0.0145938    0.829206   -0.796227  0.00149537
4440  0.00931468    0.828291   -0.797297  -0.00016653
4450   0.0179244    0.829783     1.66952  -0.000444585
4460   0.0182064    0.829832   0.0243515  -0.000726147
4470   0.0324473    0.832301    0.846802  -0.000587661
4480   0.0299596    0.831869     1.94207  -0.00031112
4490   0.0386697    0.833379     1.94207  0.000530936
4500   0.0193409    0.830029     -0.2498  -0.000313424
4510   0.0449382    0.834466     3.03786  0.000393878
4520   0.0114633    0.828664   -0.249264  0.00166009
4530   0.0117364    0.828711    0.298234  -0.00073428
4540   0.0261489    0.831209     1.12015  -0.000594023
4550   0.0236168     0.83077   -0.248462  0.000679395
4560    0.012561    0.828854    0.847337  0.000965428
4570  0.00430829    0.827423   -0.523683  -0.000312581
4580   0.0188127    0.829937    -1.62002  -0.000597015
4590   0.0162486    0.829493   0.0248864  -2.90417e-05
4600   0.0193935    0.830038    0.846534  -0.000458254
4610   0.0254137    0.831082    0.845731  -0.000603137
4620   0.0314562    0.832129     1.39216  -0.00118041
4630   0.0490219    0.835173     1.39296  0.00112059
4640  0.00904438    0.828244     1.94233  0.000830811
4650   0.0324057    0.832293     2.21488  -0.00132861
4660   0.0356166     0.83285     0.84466  -0.00133541
4670   0.0591138    0.836923     2.76184  -0.000322778
4680   0.0420722    0.833969    0.844126  0.00068978
4690   0.0453182    0.834531   -0.526893  -0.000179632
4700   0.0456649    0.834592   -0.526358  0.000549008
4710    0.034338    0.832628    0.843055  0.000403902
4720   0.0375868    0.833191     2.48876  0.00113923
4730   0.0115534    0.828679   0.0224776  0.000553668
4740   0.0265135    0.831272     1.94073  -0.000469603
4750   0.0209455    0.830307     3.85844  -0.00135724
4760   0.0536583    0.835977      1.6647  -0.000177965
4770   0.0245048    0.830924     2.76184  0.000850602
4780   0.0366463    0.833028     2.21274  0.000709709
4790   0.0103106    0.828464     1.94073  0.000411812
4800     0.02841    0.831601     1.93992  -0.000623529
4810   0.0227812    0.830625     1.39216  -0.00152233
4820   0.0588566    0.836878    0.295022  0.000267549
4830   0.0174302    0.829698     2.21408  0.00175709
4840   0.0237149    0.830787     2.21488  -0.000929491
4850     0.03602     0.83292     2.21274  -0.000181627
4860   0.0273474    0.831417     0.29529  0.00192226
4870  -0.00242513    0.826256     1.66711  -0.0003338
4880   0.0340234    0.832574     2.76131  -2.64282e-05
4890  -0.00189657    0.826348      2.4893  -0.000790558
4900   0.0498346    0.835314    0.844126  -0.00139168
4910   0.0259371    0.831172      1.6639  0.000266964
4920   0.0444953    0.834389     2.48769  0.000424467
4930   0.0174478    0.829701     2.21381  0.00118447
4940   0.0208059    0.830283      3.3088  -0.00110075
4950   0.0394627    0.833517     1.93885  0.000121721
4960   0.0183714    0.829861     3.03546  0.000885473
4970   0.0217533    0.830447    0.842253  0.000737667
4980   0.0036181    0.827304     2.48769  -0.000802165
4990   0.0377966    0.833228     2.76104   -0.002342
