Time   Number   
ps   
0           4           4
10           5           5
20           4           4
30           4           4
40           4           4
50           5           5
60           5           5
70           5           5
80           5           5
90           5           5
100           4           6
110           5           5
120           5           5
130           5           5
140           4           4
150           4           4
160           3           5
170           4           4
180           5           5
190           4           4
200           4           4
210           4           4
220           5           5
230           5           5
240           4           6
250           4           4
260           4           4
270           5           5
280           4           6
290           5           5
300           3           7
310           3           7
320           5           5
330           4           6
340           5           5
350           5           5
360           5           5
370           5           5
380           5           5
390           4           4
400           5           5
410           4           4
420           5           5
430           4           6
440           3           7
450           5           5
460           5           5
470           5           5
480           5           5
490           5           7
500           5           5
510           5           5
520           5           7
530           5           5
540           5           5
550           5           5
560           5           5
570           5           5
580           4           6
590           5           5
600           4           6
610           5           5
620           5           5
630           5           5
640           4           4
650           5           5
660           5           5
670           5           5
680           5           5
690           4           4
700           5           5
710           5           5
720           5           5
730           5           5
740           5           5
750           5           5
760           5           5
770           5           5
780           5           5
790           3           3
800           4           4
810           4           6
820           4           4
830           5           5
840           5           5
850           5           5
860           5           5
870           4           4
880           4           6
890           4           6
900           3           3
910           5           5
920           5           5
930           5           5
940           4           6
950           4           4
960           5           5
970           5           5
980           5           5
990           4           4
1000           4           4
1010           4           4
1020           5           5
1030           4           4
1040           3           7
1050           4           6
1060           5           5
1070           5           5
1080           5           5
1090           5           5
1100           5           5
1110           5           5
1120           5           5
1130           5           5
1140           5           5
1150           5           5
1160           5           5
1170           4           4
1180           4           4
1190           4           6
1200           5           5
1210           5           5
1220           4           4
1230           5           5
1240           5           5
1250           5           5
1260           5           5
1270           5           5
1280           5           5
1290           5           5
1300           5           5
1310           4           6
1320           4           6
1330           5           5
1340           5           5
1350           4           4
1360           4           4
1370           4           6
1380           5           5
1390           4           4
1400           5           5
1410           5           5
1420           5           5
1430           3           3
1440           5           5
1450           4           4
1460           5           5
1470           5           5
1480           5           5
1490           5           5
1500           5           5
1510           4           6
1520           5           5
1530           5           5
1540           4           4
1550           3           5
1560           5           5
1570           4           6
1580           5           5
1590           3           3
1600           5           5
1610           4           6
1620           4           6
1630           5           5
1640           5           5
1650           4           4
1660           5           5
1670           4           6
1680           4           4
1690           5           5
1700           5           5
1710           4           6
1720           5           5
1730           5           5
1740           4           4
1750           5           5
1760           3           3
1770           4           4
1780           4           6
1790           5           5
1800           4           4
1810           5           5
1820           4           4
1830           5           5
1840           5           5
1850           5           5
1860           4           4
1870           5           5
1880           4           4
1890           4           4
1900           5           5
1910           4           6
1920           3           5
1930           4           4
1940           4           4
1950           5           5
1960           5           5
1970           5           5
1980           4           4
1990           4           4
2000           4           4
2010           4           6
2020           5           5
2030           5           5
2040           5           5
2050           5           5
2060           5           5
2070           5           5
2080           5           5
2090           5           5
2100           5           5
2110           5           5
2120           5           5
2130           5           5
2140           5           5
2150           5           5
2160           5           5
2170           4           6
2180           3           3
2190           3           5
2200           3           5
2210           3           5
2220           3           5
2230           4           4
2240           4           4
2250           3           3
2260           3           3
2270           4           4
2280           4           4
2290           4           4
2300           4           4
2310           3           5
2320           4           4
2330           4           4
2340           4           4
2350           4           4
2360           3           3
2370           4           4
2380           4           4
2390           4           4
2400           4           4
2410           4           4
2420           4           4
2430           4           4
2440           3           3
2450           3           3
2460           4           4
2470           3           3
2480           3           3
2490           3           3
2500           4           6
2510           3           3
2520           4           4
2530           3           3
2540           4           4
2550           4           4
2560           5           5
2570           4           4
2580           4           6
2590           2           6
2600           3           5
2610           4           4
2620           4           4
2630           4           4
2640           4           4
2650           3           3
2660           4           4
2670           3           3
2680           4           4
2690           2           4
2700           3           3
2710           3           3
2720           4           4
2730           3           3
2740           4           4
2750           3           3
2760           4           4
2770           3           5
2780           4           4
2790           2           4
2800           4           4
2810           3           5
2820           4           4
2830           2           2
2840           3           5
2850           4           4
2860           3           3
2870           3           3
2880           3           5
2890           4           4
2900           4           4
2910           4           4
2920           4           4
2930           4           4
2940           4           4
2950           3           3
2960           4           4
2970           4           4
2980           4           4
2990           2           2
3000           2           8
3010           2           6
3020           4           4
3030           3           3
3040           3           3
3050           3           3
3060           4           4
3070           4           4
3080           3           3
3090           4           4
3100           3           7
3110           4           4
3120           4           4
3130           4           4
3140           2           4
3150           4           4
3160           3           5
3170           3           5
3180           3           3
3190           4           6
3200           4           4
3210           4           6
3220           3           7
3230           4           6
3240           3           7
3250           3           5
3260           4           4
3270           3           5
3280           4           4
3290           3           3
3300           4           4
3310           3           3
3320           4           4
3330           3           5
3340           5           5
3350           3           5
3360           4           4
3370           3           3
3380           4           4
3390           3           3
3400           4           6
3410           2           2
3420           4           4
3430           4           4
3440           3           3
3450           2           6
3460           2           6
3470           4           4
3480           4           4
3490           3           5
3500           4           4
3510           3           3
3520           3           5
3530           2           2
3540           3           3
3550           2           2
3560           3           5
3570           4           4
3580           4           4
3590           4           4
3600           4           4
3610           4           4
3620           2           2
3630           3           3
3640           2           2
3650           3           5
3660           4           4
3670           3           3
3680           4           4
3690           3           5
3700           2           4
3710           2           4
3720           5           5
3730           3           5
3740           3           5
3750           2           4
3760           3           3
3770           0           0
3780           4           4
3790           3           3
3800           4           4
3810           4           4
3820           3           3
3830           4           4
3840           3           3
3850           2           2
3860           4           4
3870           3           3
3880           2           2
3890           3           3
3900           4           4
3910           3           5
3920           3           5
3930           4           4
3940           4           4
3950           4           4
3960           3           5
3970           3           3
3980           3           3
3990           4           4
4000           3           5
4010           3           3
4020           3           5
4030           4           4
4040           4           4
4050           4           4
4060           4           4
4070           4           4
4080           4           4
4090           3           3
4100           4           4
4110           4           4
4120           4           4
4130           4           4
4140           3           5
4150           3           5
4160           3           3
4170           3           3
4180           3           3
4190           3           3
4200           3           5
4210           4           4
4220           4           4
4230           4           4
4240           4           4
4250           4           4
4260           4           4
4270           4           4
4280           3           5
4290           4           4
4300           4           4
4310           3           3
4320           2           4
4330           3           3
4340           2           2
4350           3           5
4360           3           5
4370           3           3
4380           4           4
4390           4           4
4400           4           4
4410           4           4
4420           3           3
4430           4           6
4440           3           5
4450           4           4
4460           4           4
4470           3           3
4480           3           5
4490           3           3
4500           3           5
4510           3           3
4520           4           4
4530           3           3
4540           4           4
4550           4           4
4560           4           4
4570           3           5
4580           4           4
4590           3           7
4600           3           3
4610           4           6
4620           3           5
4630           3           5
4640           5           5
4650           4           6
4660           3           3
4670           4           6
4680           4           6
4690           4           6
4700           4           4
4710           4           4
4720           3           3
4730           3           3
4740           4           4
4750           3           3
4760           4           4
4770           2           4
4780           4           4
4790           4           4
4800           4           4
4810           3           5
4820           3           5
4830           3           3
4840           4           6
4850           4           4
4860           3           3
4870           3           5
4880           4           4
4890           2           2
4900           4           4
4910           4           4
4920           3           5
4930           4           4
4940           3           3
4950           3           5
4960           4           4
4970           4           4
4980           3           3
4990           1           3
5000           4           4
5010           4           4
5020           4           4
5030           4           4
5040           3           5
5050           2           4
5060           4           4
5070           4           4
5080           4           4
5090           2           2
5100           3           5
5110           4           4
5120           4           4
5130           4           4
5140           4           4
5150           4           4
5160           4           4
5170           4           4
5180           3           3
5190           3           3
5200           4           4
5210           3           3
5220           4           4
5230           4           4
5240           4           4
5250           4           4
5260           3           3
5270           2           2
5280           4           4
5290           3           7
5300           4           6
5310           2           2
5320           4           4
5330           4           4
5340           3           5
5350           3           5
5360           4           4
5370           3           5
5380           3           5
5390           4           4
5400           3           5
5410           4           4
5420           3           3
5430           3           5
5440           4           4
5450           4           4
5460           3           3
5470           3           3
5480           3           3
5490           4           4
5500           3           3
5510           4           4
5520           3           5
5530           4           4
5540           3           5
5550           4           4
5560           3           5
5570           3           5
5580           4           4
5590           3           5
5600           4           4
5610           4           4
5620           3           3
5630           4           4
5640           4           4
5650           4           4
5660           4           4
5670           3           5
5680           4           4
5690           3           3
5700           4           4
5710           3           5
5720           3           3
5730           3           5
5740           4           4
5750           2           4
5760           4           4
5770           4           4
5780           4           4
5790           4           4
5800           4           4
5810           4           4
5820           3           5
5830           4           4
5840           4           4
5850           2           4
5860           4           4
5870           4           4
5880           3           5
5890           3           3
5900           4           4
5910           3           5
5920           3           3
5930           3           5
5940           3           5
5950           3           5
5960           4           4
5970           4           4
5980           3           3
5990           3           5
6000           4           4
6010           2           2
6020           3           3
6030           4           4
6040           3           3
6050           3           3
6060           4           4
6070           4           4
6080           3           3
6090           4           4
6100           2           6
6110           4           4
6120           4           4
6130           4           4
6140           3           3
6150           3           3
6160           4           4
6170           3           5
6180           4           4
6190           4           4
6200           4           4
6210           3           5
6220           4           4
6230           4           4
6240           4           4
6250           3           5
6260           3           3
6270           4           4
6280           4           4
6290           4           4
6300           3           3
6310           4           4
6320           4           4
6330           3           3
6340           4           4
6350           3           3
6360           3           5
6370           3           5
6380           4           4
6390           4           4
6400           3           3
6410           3           3
6420           4           4
6430           4           4
6440           4           4
6450           4           4
6460           3           5
6470           3           5
6480           3           5
6490           4           4
6500           4           4
6510           4           4
6520           4           4
6530           4           4
6540           2           6
6550           3           3
6560           4           4
6570           4           4
6580           3           3
6590           3           3
6600           4           4
6610           3           3
6620           3           5
6630           3           3
6640           3           3
6650           3           7
6660           2           4
6670           4           4
6680           3           3
6690           4           4
6700           4           4
6710           3           3
6720           4           4
6730           4           4
6740           2           2
6750           4           4
6760           3           5
6770           4           4
6780           4           4
6790           2           2
6800           3           3
6810           3           3
6820           4           4
6830           4           4
6840           4           4
6850           3           5
6860           4           4
6870           3           5
6880           3           3
6890           3           3
6900           3           3
6910           4           4
6920           4           4
6930           3           3
6940           4           4
6950           4           4
6960           4           4
6970           4           4
6980           3           5
6990           4           4
7000           4           4
7010           4           6
7020           3           3
7030           3           3
7040           4           4
7050           4           4
7060           4           4
7070           4           4
7080           3           3
7090           4           4
7100           4           4
7110           3           3
7120           4           4
7130           4           4
7140           3           3
7150           4           4
7160           4           4
7170           3           3
7180           3           3
7190           4           4
7200           4           4
7210           4           4
7220           3           5
7230           3           5
7240           4           4
7250           4           4
7260           4           4
7270           4           4
7280           2           4
7290           4           4
7300           3           5
7310           3           5
7320           4           4
7330           4           4
7340           2           4
7350           4           4
7360           3           5
7370           4           4
7380           3           3
7390           4           4
7400           4           4
7410           4           4
7420           4           4
7430           3           3
7440           4           4
7450           4           4
7460           3           3
7470           3           5
7480           3           5
7490           3           5
7500           4           4
7510           4           4
7520           4           4
7530           3           3
7540           4           4
7550           2           2
7560           4           4
7570           3           3
7580           4           4
7590           3           3
7600           4           4
7610           4           4
7620           3           5
7630           2           2
7640           4           4
7650           4           4
7660           4           4
7670           4           4
7680           4           4
7690           3           3
7700           2           4
7710           3           3
7720           4           4
7730           4           4
7740           4           4
7750           4           4
7760           4           4
7770           4           4
7780           2           4
7790           2           6
7800           4           4
7810           4           4
7820           4           4
7830           4           4
7840           4           4
7850           3           3
7860           3           3
7870           4           4
7880           4           4
7890           4           4
7900           4           4
7910           4           4
7920           4           4
7930           3           5
7940           3           5
7950           4           4
7960           4           4
7970           4           4
7980           3           3
7990           4           4
8000           4           4
8010           4           4
8020           1           5
8030           3           3
8040           3           3
8050           4           4
8060           4           4
8070           3           3
8080           4           4
8090           3           3
8100           4           4
8110           3           3
8120           4           4
8130           3           5
8140           4           4
8150           4           4
8160           3           5
8170           2           4
8180           3           3
8190           1           5
8200           4           4
8210           2           4
8220           2           2
8230           3           3
8240           3           5
8250           3           3
8260           3           3
8270           4           4
8280           4           4
8290           4           4
8300           2           4
8310           3           5
8320           4           4
8330           4           4
8340           4           4
8350           4           4
8360           3           3
8370           4           4
8380           4           4
8390           3           5
8400           4           4
8410           4           4
8420           4           4
8430           3           3
8440           3           5
8450           4           4
8460           4           4
8470           2           4
8480           4           4
8490           4           4
8500           3           5
8510           4           4
8520           4           4
8530           4           4
8540           4           4
8550           3           5
8560           4           4
8570           3           3
8580           4           4
8590           4           4
8600           4           4
8610           4           4
8620           4           4
8630           4           4
8640           4           4
8650           3           3
8660           4           4
8670           4           4
8680           4           4
8690           4           4
8700           3           3
8710           4           4
8720           4           4
8730           4           4
8740           4           4
8750           4           4
8760           4           4
8770           4           4
8780           4           4
8790           4           4
8800           4           4
8810           4           4
8820           4           4
8830           4           4
8840           3           3
8850           4           4
8860           4           4
8870           4           4
8880           4           4
8890           4           4
8900           3           3
8910           4           4
8920           4           4
8930           3           5
8940           4           4
8950           4           4
8960           4           4
8970           4           4
8980           3           5
8990           4           4
9000           3           5
9010           4           4
9020           4           4
9030           4           4
9040           4           4
9050           4           4
9060           2           2
9070           4           4
9080           3           3
9090           3           3
9100           3           3
9110           4           4
9120           4           4
9130           4           4
9140           3           5
9150           2           4
9160           4           4
9170           2           2
9180           4           4
9190           3           5
9200           4           4
9210           4           4
9220           4           4
9230           4           4
9240           4           4
9250           3           5
9260           3           3
9270           3           3
9280           4           4
9290           4           4
9300           4           4
9310           4           4
9320           4           4
9330           4           4
9340           4           4
9350           3           3
9360           4           4
9370           4           4
9380           4           4
9390           3           5
9400           4           4
9410           4           4
9420           4           4
9430           4           6
9440           4           4
9450           4           4
9460           4           4
9470           4           4
9480           4           4
9490           3           3
9500           3           3
9510           4           4
9520           4           4
9530           4           4
9540           4           4
9550           4           4
9560           4           4
9570           4           6
9580           4           4
9590           3           5
9600           3           3
9610           3           3
9620           4           4
9630           3           3
9640           4           4
9650           4           4
9660           4           6
9670           4           4
9680           3           3
9690           4           4
9700           5           5
9710           4           4
9720           4           4
9730           4           4
9740           4           4
9750           4           4
9760           3           3
9770           2           6
9780           3           5
9790           4           4
9800           3           5
9810           3           3
9820           4           4
9830           4           4
9840           3           3
9850           4           4
9860           4           4
9870           4           4
9880           4           4
9890           4           4
9900           4           4
9910           4           4
9920           3           7
9930           5           5
9940           3           3
9950           3           3
9960           3           3
9970           4           4
9980           5           5
9990           3           3
10000           4           4
