Time   C(t)   
ps   
0           1           1  1.40454e-09    0.054309
10    0.456832    0.828231   0.0925836   0.0280348
20    0.439304    0.822688   -0.101726  0.00176059
30    0.421621    0.817095     1.02281  0.00163795
40    0.406545    0.812328    0.442228  0.00135259
50    0.394569    0.808541     1.60529  0.000861633
60    0.389312    0.806878    0.208715  0.000279009
70    0.388989    0.806776   0.0902743  0.000442761
80    0.380457    0.804078   -0.491519  0.000787541
90    0.373238    0.801795     1.17629  0.000238928
100    0.375679    0.802567     1.56097  0.000360979
110    0.366018    0.799512    -1.26838  0.000645888
120    0.362761    0.798482     0.55321  0.000526202
130    0.355494    0.796184    0.940429  0.000454222
140    0.353676    0.795609    0.280268  0.000218412
150    0.351126    0.794802     1.59752  0.000601962
160    0.341637    0.791802  0.00876422  0.000566368
170    0.339799     0.79122     2.60445  0.000318091
180    0.335275     0.78979     2.48806  0.000330691
190    0.333185    0.789129     2.56408  0.00058188
200    0.323638     0.78611     2.95391  0.000784571
210    0.317493    0.784167     1.67494  0.000168219
220    0.320273    0.785046     3.30064  0.000224048
230    0.313012     0.78275     1.59567  0.000450905
240    0.311255    0.782194     2.37052  0.000200479
250    0.309003    0.781482     1.86536  0.000250001
260    0.306255    0.780613     1.74866  0.000428842
270    0.300426    0.778769    0.896646  0.000454231
280    0.297171     0.77774    0.779529  0.000276586
290    0.294894     0.77702     1.43791  0.000289555
300     0.29138    0.775908     2.09735  0.000259134
310    0.289712    0.775381     1.82498  8.6616e-05
320    0.289647    0.775361    0.892519  0.00027262
330    0.284259    0.773657     2.13406  0.000477377
340      0.2801    0.772341     2.28913  0.000707908
350    0.270101    0.769179     5.43074  0.000696655
360    0.266167    0.767935     4.03496  -1.63704e-05
370    0.270429    0.769283     3.83899  -0.000252414
380    0.271215    0.769532     4.61331  0.000189103
390    0.266646    0.768087     4.14913  0.00015807
400    0.268053    0.768532     5.19526  0.000302258
410    0.260601    0.766175     4.18802  0.000264892
420    0.262756    0.766857     3.79823  0.000347295
430    0.253655    0.763979     3.52892  0.000322378
440    0.256308    0.764818      4.1481  0.000229618
450    0.249063    0.762526      5.1959  0.000317468
460    0.249959     0.76281     4.72959  -7.08312e-05
470     0.25048    0.762974     4.37968  0.000130184
480    0.247355    0.761986     3.40995  0.000243546
490    0.245609    0.761434     4.49502  9.29214e-05
500    0.245497    0.761399     3.95156  0.000149975
510    0.242609    0.760486     3.99004  0.000301684
520    0.239463    0.759491     3.56427  0.000245421
530    0.237701    0.758933      3.4876  0.000309279
540    0.233277    0.757534     4.10652  0.000170396
550    0.234293    0.757856     4.57169  0.000272515
560    0.227827    0.755811     3.40965  0.000164818
570    0.230997    0.756813     4.10576  -7.58261e-05
580    0.229344     0.75629     3.60086  0.000184589
590    0.227305    0.755646     2.59317  0.00035051
600    0.222333    0.754074     3.21367  0.000510483
610    0.217095    0.752417     1.39284  0.000466934
620    0.212995     0.75112     2.32284  0.000180461
630    0.213486    0.751276     2.47658  -7.47323e-05
640    0.214489    0.751593     3.17447  3.40395e-05
650    0.212805     0.75106     2.39822  -3.65093e-05
660    0.215219    0.751824     3.87016  0.000271526
670    0.207375    0.749343     2.74657  0.000528464
680     0.20465    0.748482     3.01785  0.000189161
690    0.203591    0.748147     2.82392  9.30153e-05
700     0.20279    0.747893     3.63809  0.000164101
710    0.200309    0.747109     2.78506  0.000177333
720    0.199243    0.746772     2.97895  -0.000280649
730    0.205922    0.748884     3.20917  0.000158749
740    0.196068    0.745768     2.93929  0.000513998
750    0.195642    0.745633     3.01634  7.51279e-05
760    0.194566    0.745292     3.44279  8.83408e-05
770    0.193875    0.745074     2.90028  3.65563e-05
780    0.193835    0.745061     2.93698  0.000660514
790    0.180665    0.740897     1.81551  -7.39411e-05
800    0.195313    0.745529     2.16046  -0.000118112
810    0.183027    0.741644     3.09327  0.000499598
820    0.185321    0.742369     2.08463  -7.94828e-05
830    0.184617    0.742146     2.31671  -0.00016477
840    0.188617    0.743411     2.85854  7.05585e-05
850    0.183206      0.7417     1.88979  0.000391108
860    0.180795    0.740938     3.55749  1.19589e-05
870    0.182967    0.741624     2.19951  0.000379715
880      0.1732    0.738536     3.05315  0.000432499
890    0.174317    0.738889     2.27652  -7.24241e-05
900    0.174649    0.738994     2.04498  7.21604e-05
910    0.172874    0.738433     1.57882  0.000270066
920    0.169248    0.737286     1.96634  0.000600501
930    0.160864    0.734635     3.36378  0.000258002
940    0.164088    0.735654     3.94338  -0.000256702
950    0.165998    0.736258     3.24443  -8.52503e-05
960    0.165793    0.736193     2.42992   0.0004117
970    0.157764    0.733654     3.12864  0.000100291
980    0.163787    0.735559     3.04903  0.000220816
990    0.153347    0.732258     3.55484  0.000818999
1000    0.147407    0.730379     3.55658  -6.44326e-05
1010    0.154636    0.732665      3.5931  3.6113e-05
1020    0.146684    0.730151     5.10576  0.000322256
1030    0.148191    0.730627     4.29227  -7.06054e-05
1040    0.148097    0.730597     4.71729  -6.41875e-05
1050    0.149475    0.731033     4.36867  -0.000117829
1060    0.150453    0.731342     4.17352  6.95966e-05
1070    0.148083    0.730593     4.36731  0.000230578
1080    0.145842    0.729884      4.3667  0.000271432
1090    0.142654    0.728876     2.62272  0.000292221
1100    0.139997    0.728036     2.93289  -0.000158296
1110     0.14582    0.729877     3.74445  -0.000205341
1120    0.144104    0.729335     3.74536  0.000306706
1130    0.139686    0.727937     3.08645  7.07559e-05
1140    0.142689    0.728887     2.89256  -0.000233029
1150    0.144346    0.729411     3.54958  -3.43993e-06
1160    0.142758    0.728909     3.82081  0.000409833
1170     0.13615    0.726819      4.6362  0.000505554
1180    0.132647    0.725711     3.35701  0.000214775
1190    0.131854    0.725461     3.74548  -4.31433e-05
1200    0.133509    0.725984     3.16236  1.14217e-05
1210    0.131626    0.725389     4.86873  0.000195352
1220    0.129602    0.724749     3.70658  3.18721e-05
1230    0.130988    0.725187     3.62783  -6.34901e-05
1240    0.130872     0.72515      4.5579  0.000121081
1250    0.128567    0.724421     3.62825  0.000189659
1260    0.127079    0.723951     3.78392  -0.000337853
1270    0.135324    0.726558      4.1302  -0.000228156
1280    0.131642    0.725394     4.94539  0.000237892
1290    0.130566    0.725053     4.01516  -9.1508e-06
1300    0.131825    0.725452      5.3706  -5.71571e-05
1310    0.131709    0.725415      4.9444  0.000294342
1320    0.125938     0.72359     4.01459  3.22968e-05
1330    0.131063    0.725211     5.40908  -7.76075e-05
1340     0.12749    0.724081     4.55703  -0.00023743
1350    0.135812    0.726712     5.05951  9.52117e-05
1360    0.125586    0.723479     4.44045  0.000600709
1370    0.123798    0.722913      3.6651  -2.23257e-05
1380    0.126033     0.72362     3.97373  3.34177e-05
1390    0.123129    0.722702     5.02183  8.19515e-05
1400    0.124394    0.723101     4.82702  0.000110233
1410    0.120925    0.722004     4.12895  5.44146e-05
1420    0.123305    0.722757     5.05948  -7.94455e-06
1430    0.121083    0.722055     4.51651  0.000327354
1440    0.116758    0.720687     5.09909  -0.000211052
1450    0.125304     0.72339     5.44495  -0.000301909
1460    0.122797    0.722596     3.70139  0.000237091
1470    0.120563     0.72189     3.85691  7.61088e-05
1480    0.121274    0.722115     2.73147  0.000118649
1490     0.11819     0.72114     4.01274  0.000111609
1500    0.119042    0.721409     4.74794  9.80012e-05
1510     0.11623     0.72052     5.21364  0.000338051
1520    0.112281    0.719271     3.31455  0.000119695
1530    0.113836    0.719763     2.77033  0.000155666
1540    0.109168    0.718287      4.1291  3.52554e-05
1550    0.113131     0.71954     3.93411  -9.17621e-05
1560    0.111003    0.718867     3.50791  2.83286e-05
1570    0.112564    0.719361     3.31292  7.83425e-05
1580    0.109436    0.718371     3.35205  4.27004e-05
1590     0.11171     0.71909     4.35917  0.000192779
1600    0.105581    0.717152     4.36045  0.000264015
1610     0.10643    0.717421     5.98868  -0.000192081
1620    0.109422    0.718367     4.82414  -0.000256683
1630    0.111563    0.719044     4.00941  0.000286784
1640    0.103687    0.716553     4.94107  0.000301155
1650     0.10554    0.717139      4.2422  0.000323999
1660   0.0972066    0.714504     4.55499  0.000108584
1670    0.103369    0.716453     5.28951  -0.000106049
1680   0.0993276    0.715175     5.25049  -0.000128525
1690    0.105939    0.717265     4.35708   0.0001602
1700   0.0961236    0.714161     4.24228  0.000556764
1710   0.0948039    0.713744     5.05736  -0.000258257
1720    0.101289    0.715795      4.0863  0.00013238
1730   0.0921563    0.712907     4.16554  0.000247702
1740   0.0963347    0.714228     3.31114  -0.000178935
1750   0.0957349    0.714039     4.70695  0.000219892
1760   0.0919369    0.712837     3.85385   0.0001548
1770    0.092639    0.713059      4.7843  -4.12397e-05
1780   0.0927617    0.713098     5.44287  -0.000245497
1790   0.0975489    0.714612      3.9296  -1.94702e-05
1800   0.0931511    0.713221     5.63699  0.000411087
1810   0.0893271    0.712012     4.62855  -0.000261084
1820   0.0983727    0.714873     2.64931  -0.000290224
1830   0.0951316    0.713848     3.57984  0.000419861
1840   0.0899755    0.712217     3.54291  0.000266512
1850   0.0898014    0.712162     3.54238  0.000238099
1860   0.0852135    0.710711     2.69007  -0.000122362
1870   0.0922486    0.712936     3.38686  -0.000350538
1880   0.0922243    0.712928     3.54162  0.000305123
1890   0.0861462    0.711006     3.38841  0.000113353
1900   0.0899572    0.712211     3.46481  -0.000240954
1910   0.0909652     0.71253     3.92941  0.000365795
1920   0.0826413    0.709898     4.43496  0.000284522
1930   0.0852748    0.710731      3.3872  -0.000508758
1940   0.0928165    0.713116     4.58666  -0.000204841
1950   0.0893716    0.712026     3.96687  0.000240672
1960   0.0880031    0.711593     3.42421  0.000114672
1970   0.0870782    0.711301     4.47136  0.000226969
1980   0.0834637    0.710158     3.58045  0.00023481
1990    0.082382    0.709816      4.0071  0.000108377
2000   0.0812961    0.709472     4.66544  2.63024e-05
2010   0.0818559     0.70965     3.19247  -0.00014613
2020   0.0842187    0.710397     4.74135  0.000251651
2030   0.0768229    0.708058      5.0922  0.000123842
2040   0.0817419    0.709613     4.54798  -0.000131061
2050   0.0794441    0.708887     5.32284  4.91086e-05
2060   0.0807597    0.709303     4.85812  -0.000154366
2070   0.0825315    0.709863     4.97388  0.000291223
2080   0.0749353    0.707461     5.20765  0.000495668
2090   0.0726181    0.706728     4.50969  -0.000268039
2100   0.0802961    0.709156     4.74048  -0.000222531
2110   0.0770687    0.708136     5.74835  0.000482672
2120   0.0706426    0.706103     4.70336  5.77226e-05
2130   0.0759142    0.707771     4.54689  -0.000314528
2140   0.0769332    0.708093     3.22846  -8.68619e-05
2150   0.0776515     0.70832     4.08066  -0.000102402
2160   0.0789812     0.70874     4.93263  -0.000308996
2170   0.0838314    0.710274     4.46693  -4.92878e-05
2180    0.079967    0.709052     4.15721  0.000570825
2190   0.0724149    0.706664     4.00365  0.000441584
2200   0.0711353    0.706259     5.32167  0.000158833
2210   0.0692382    0.705659     4.58503  1.29767e-05
2220   0.0708758    0.706177     5.66976  9.02921e-05
2230   0.0674324    0.705088     4.85581  0.000398751
2240   0.0629007    0.703655     4.43023  0.000237496
2250   0.0626825    0.703586     5.47632  0.000114719
2260   0.0606064     0.70293     4.46897  -9.42219e-05
2270   0.0645669    0.704182     4.97191  -0.000187171
2280   0.0643498    0.704113     5.70764  -5.58939e-05
2290   0.0656848    0.704536     5.93982  -4.03821e-05
2300   0.0651574    0.704369     6.05652  -0.0002119
2310   0.0699228    0.705876     5.62878  6.07006e-05
2320   0.0639434    0.703985     4.89384  0.000177266
2330   0.0663775    0.704755     6.55949  5.32083e-05
2340   0.0628793    0.703648     5.97842  0.000107726
2350   0.0642229    0.704073     6.90853  -0.000205059
2360   0.0669804    0.704945     6.20924  0.000359378
2370   0.0570354      0.7018     4.46712  0.000100244
2380   0.0649756    0.704311     5.16319  -8.46293e-06
2390   0.0572047    0.701854     5.04808  0.000218855
2400   0.0605984    0.702927     3.88392  -0.000221475
2410   0.0616342    0.703255     5.16311  -0.000143142
2420   0.0634613    0.703832     5.86059  2.25518e-05
2430   0.0611831    0.703112     5.86104  6.97663e-05
2440    0.062066    0.703391     7.21716  -4.8694e-05
2450    0.062157     0.70342     6.32542  -2.5049e-05
2460   0.0625669     0.70355     5.66601  -0.000104626
2470   0.0642495    0.704082     5.47128  0.000253404
2480   0.0574989    0.701947     4.73699  0.000173808
2490   0.0607734    0.702982     5.27875  -0.000248107
2500    0.062461    0.703516     6.09205  0.000206651
2510   0.0566403    0.701675     7.02338  0.000438822
2520   0.0536846    0.700741     5.66639  8.7559e-05
2530   0.0548892    0.701122     5.51136  -0.000136555
2540   0.0564157    0.701604     5.39473  0.000184551
2550   0.0511981    0.699954      6.0922  0.000184542
2560   0.0527248    0.700437     5.82074  -0.000144839
2570   0.0540949     0.70087     6.01456  3.22208e-05
2580   0.0520804    0.700233     5.54878  8.86617e-05
2590   0.0523217     0.70031     5.85899  4.05047e-05
2600   0.0512703    0.699977     5.78067  0.000283514
2610   0.0466514    0.698517     5.62635  0.00026786
2620   0.0459131    0.698283     6.63449  2.51906e-05
2630   0.0461476    0.698357     6.28485  -0.000121128
2640   0.0483357    0.699049     5.19879  0.000212607
2650   0.0418954    0.697013      5.5106  -0.000105418
2660    0.050444    0.699716     5.89604  -0.000153716
2670   0.0449698    0.697985     4.69495  -4.87413e-05
2680   0.0514188    0.700024     5.35318  -3.17119e-05
2690    0.045604    0.698185     4.88862  0.000516712
2700   0.0410846    0.696756     5.78093  9.12815e-05
2710   0.0437784    0.697608     4.46125  -0.000179321
2720    0.044671     0.69789     4.15134  0.000240012
2730   0.0389781     0.69609     4.73472  1.76137e-05
2740   0.0443187    0.697779     4.81052  -0.000229325
2750   0.0435646     0.69754     5.50837  -2.36733e-05
2760   0.0447922    0.697929     4.96426  0.000141983
2770    0.040725    0.696642     4.22887  0.000241492
2780   0.0399624    0.696401     4.42296  3.48596e-05
2790   0.0400278    0.696422     3.91832  -3.98168e-05
2800   0.0407587    0.696653     4.77086  4.33696e-05
2810   0.0391604    0.696148     4.65533  -0.000190112
2820   0.0445609    0.697855     5.19637  -0.00019849
2830   0.0431302    0.697403      4.3052  1.78587e-05
2840   0.0442038    0.697743      4.6545  0.000311051
2850   0.0369092    0.695436     4.92744  0.000219119
2860   0.0398214    0.696357      4.1124  -0.000274834
2870   0.0424059    0.697174     5.15842  1.02157e-05
2880   0.0396171    0.696292     5.77945  0.00030452
2890   0.0363155    0.695248      5.3914  -4.87413e-05
2900   0.0405919      0.6966      6.0888  -9.90093e-05
2910   0.0382956    0.695874      5.2755  -0.000125152
2920   0.0430949    0.697392     4.80866   -0.000252
2930   0.0433356    0.697468     5.19626  -0.000185211
2940   0.0467992    0.698563     4.18766  -0.000185494
2950   0.0470455    0.698641     5.46682  0.000332425
2960   0.0401507    0.696461     5.46856  0.000154027
2970    0.043965    0.697667     5.00289  -0.000177295
2980   0.0436966    0.697582     5.89434  -0.000220768
2990   0.0483803    0.699063     5.31205  -0.000127017
3000   0.0462369    0.698385     4.69219  9.48155e-05
3010    0.046484    0.698464     4.88533  -0.000110535
3020   0.0484476    0.699085     4.65287  0.000232765
3030   0.0418287    0.696991     5.31303  5.21904e-05
3040   0.0474038    0.698754     4.96324  -0.000222417
3050   0.0462771    0.698398     3.79988  9.5645e-05
3060   0.0454909     0.69815     5.03975  0.000251415
3070   0.0412488    0.696808     4.57587  -2.49738e-05
3080   0.0459904    0.698308     4.80662  -5.03527e-05
3090   0.0422558    0.697127     5.62215  7.03694e-05
3100    0.044583    0.697862     4.92339  -0.000120119
3110   0.0446582    0.697886     5.38906  -2.4936e-05
3120   0.0450817     0.69802     5.81445  0.000375785
3130   0.0371425    0.695509     4.30471  -5.12481e-05
3140   0.0461067    0.698344     5.85381  -1.52009e-05
3150   0.0374465    0.695606     5.77635  0.000455983
3160    0.036987     0.69546      7.5598  6.35371e-05
3170   0.0361758    0.695204     6.62934  -0.000357587
3180   0.0441387    0.697722     5.77457  0.000107858
3190   0.0340186    0.694522     6.63003  0.000388592
3200   0.0363669    0.695264     5.96986  -0.000490871
3210    0.043836    0.697626     4.68958  -0.000235988
3220   0.0410867    0.696757     4.92245  0.000337259
3230   0.0370909    0.695493     4.96161  -0.000113428
3240   0.0433552    0.697474     4.65011  -0.000148495
3250   0.0400608    0.696432      5.3869  0.000196746
3260   0.0394203     0.69623     4.96017  0.000144198
3270   0.0371768     0.69552     6.51132  -1.58418e-05
3280   0.0397371     0.69633     6.23963  -1.55874e-05
3290   0.0374886    0.695619     5.03774  0.000171641
3300   0.0363043    0.695244     4.06873  -0.000167711
3310   0.0408428     0.69668     4.68806  -0.000167833
3320    0.039661    0.696306     3.40891  0.000226102
3330   0.0363207     0.69525     4.76651  3.7913e-05
3340   0.0389027    0.696066     4.14536  0.000209478
3350   0.0321312    0.693925      4.2627  7.41391e-05
3360     0.03742    0.695597     5.46337  -0.0002317
3370   0.0367652     0.69539     5.03714  0.000174119
3380   0.0339376    0.694496     4.72764  0.000219769
3390   0.0323698       0.694     4.49474  5.72324e-05
3400   0.0327929    0.694134     5.61844  -0.000287594
3410   0.0381217    0.695819     5.77207  0.00012126
3420   0.0303677    0.693367     5.30883  0.000102402
3430   0.0360736    0.695171     4.64784  -0.000215585
3440   0.0346794    0.694731      4.9968  7.56282e-05
3450   0.0345611    0.694693     4.60905  0.000103401
3460   0.0326114    0.694077     4.10581  0.000176937
3470   0.0310223    0.693574     4.76458  -1.52953e-05
3480   0.0329173    0.694173     3.67879  -7.02659e-05
3490   0.0324276    0.694018     3.91158  -0.000310099
3500   0.0391193    0.696135     4.06495  0.000279791
3510   0.0268318    0.692249     4.22214  0.000427014
3520    0.030579    0.693434     4.53118  -1.44943e-05
3530   0.0271217    0.692341     4.29933  0.00031842
3540   0.0242106     0.69142     5.42337  -0.000265212
3550    0.032426    0.694018     4.68511  -0.00032088
3560   0.0306282    0.693449     4.02552  3.10037e-06
3570   0.0323639    0.693998     4.37406  0.000311079
3580   0.0244066    0.691482     4.99567  0.000619529
3590   0.0199734     0.69008     3.83367  0.000191441
3600   0.0205778    0.690271     3.94916  -0.000172932
3610    0.023432    0.691174     5.49875  -0.000295209
3620    0.026482    0.692138     3.63754  0.000107981
3630   0.0212724    0.690491     4.49107   0.0002394
3640    0.021694    0.690624      4.2974  7.09161e-05
3650   0.0198541    0.690042     4.37524  0.000118197
3660   0.0193301    0.689877     5.03381  4.29549e-05
3670    0.018995    0.689771     4.87889  0.000251481
3680   0.0143005    0.688286     4.91768  -0.000298206
3690   0.0249591    0.691657     5.30338  -6.99266e-05
3700    0.015699    0.688728     4.83916  0.000670532
3710   0.0115484    0.687416     5.22763  0.000472937
3720  0.00624024    0.685737     4.18202  -0.000127102
3730   0.0140905     0.68822     4.68398  -0.00021255
3740   0.0104912    0.687081       5.266  0.000207235
3750  0.00994578    0.686909     5.84711  -7.96145e-05
3760   0.0120835    0.687585     4.29604  -1.23267e-05
3770   0.0101923    0.686987     4.68341  6.42722e-05
3780   0.0107981    0.687178     4.72147  -0.000185975
3790   0.0139118    0.688163     5.72893  0.000431509
3800  0.00216791    0.684449     5.76927  0.000209309
3810  0.00972564    0.686839     5.06994  -0.000214567
3820  0.00645926    0.685806      5.0312  0.000181583
3830  0.00609398    0.685691     6.15505  9.49286e-05
3840  0.00456068    0.685206     5.76704  0.000367689
3850  -0.00125981    0.683365     5.45769  0.000329512
3860  -0.00202957    0.683122     6.03915  0.000223586
3870  -0.00573153    0.681951     6.03918  0.000233896
3880  -0.00670749    0.681643     6.85286  2.91392e-05
3890  -0.00631431    0.681767     6.77552  8.82187e-05
3900  -0.00847186    0.681085     6.50469  0.000196435
3910   -0.010243    0.680524     6.62003  -0.000255835
3920  -0.00335516    0.682703      6.3083  2.02146e-05
3930  -0.0106473    0.680397     6.65825  0.000463655
3940  -0.0126282     0.67977     7.00804  -0.000137978
3950  -0.00788776    0.681269     7.31614  -8.82941e-05
3960  -0.0108624    0.680329      7.8596  0.000357455
3970  -0.0150369    0.679008     7.24016  0.000109913
3980  -0.0130606    0.679633     6.23168  -0.000307441
3990  -0.00888803    0.680953     7.97528  1.0178e-06
4000   -0.013081    0.679627     7.58753  0.000300025
4010  -0.0148885    0.679055     8.79013  -7.91433e-05
4020  -0.0114981    0.680128     7.58673  -8.89161e-05
4030  -0.0131102    0.679618     7.78104  0.00020159
4040  -0.0155299    0.678853     7.08365  -8.95946e-05
4050  -0.0113183    0.680184     6.61742  -0.000280781
4060  -0.00991431    0.680628     7.23743  -6.99831e-05
4070  -0.00991864    0.680627      7.6245  0.000263346
4080  -0.0151812    0.678963     7.19827  0.000233396
4090  -0.0145866    0.679151     6.96615  -8.99433e-05
4100  -0.0133824    0.679532     8.47749  -1.91214e-05
4110  -0.0142041    0.679272     7.89611  0.000255515
4120  -0.0184927    0.677916     6.11304  0.000225527
4130  -0.0187147    0.677845     7.50772  0.000124473
4140  -0.0209821    0.677128     6.57856  0.000216838
4150  -0.0230515    0.676474     6.11331  8.43077e-05
4160  -0.0226683    0.676595     6.34527  -4.86376e-05
4170  -0.0220787    0.676782     6.88767  0.000218638
4180   -0.027041    0.675212     6.61647  0.000260104
4190  -0.0272808    0.675137     6.46121  3.40212e-06
4200  -0.0271091    0.675191     6.53882  -6.86068e-06
4210  -0.0271436     0.67518     5.53015  0.000138072
4220  -0.0298705    0.674318     6.65431  0.000283514
4230  -0.0328138    0.673387     5.72401  7.66647e-05
4240  -0.0314038    0.673833     6.07218  -0.000193354
4250  -0.0289468     0.67461     5.41289  -6.21974e-06
4260  -0.0312794    0.673872     4.52122  -3.79885e-05
4270   -0.028187     0.67485     4.98586  -0.000278378
4280  -0.0257119    0.675633      5.9932  0.000171386
4290  -0.0316147    0.673766     7.23391  0.000318298
4300  -0.0320778     0.67362      5.7598  0.000603922
4310  -0.0436932    0.669946     6.07248  0.000362666
4320  -0.0393312    0.671326      5.9159  0.000111996
4330  -0.0459331    0.669238     5.52906  2.67925e-05
4340   -0.039867    0.671156     5.87639  -0.00051233
4350  -0.0356865    0.672478     5.25581  0.000143774
4360  -0.0427425    0.670247     5.99317  0.000196435
4370  -0.0396152    0.671236     6.10907  0.000219307
4380  -0.0471286     0.66886     6.07074  0.000208498
4390  -0.0437852    0.669917     6.76772  -0.00020666
4400  -0.0429954    0.670167     6.53549  0.000499099
4410  -0.0537671    0.666761     5.91673  0.000532036
4420  -0.0536361    0.666802     5.87696  -3.46523e-05
4430  -0.0530741     0.66698     5.17866  -0.000174684
4440  -0.0501424    0.667907     6.18585  -0.000185861
4450  -0.0493569    0.668155     5.10025  0.000148175
4460  -0.0531059     0.66697     5.33335  -8.98114e-05
4470  -0.0475606    0.668723     5.91385  -2.54437e-06
4480   -0.053055    0.666986     5.68235  -6.87297e-05
4490   -0.046186    0.669158     6.26297  0.00022598
4500  -0.0575746    0.665556     6.80684  0.00066123
4510  -0.0594106    0.664976     7.07831  -0.000394963
4520  -0.0496754    0.668055     6.99903  5.33024e-05
4530  -0.0604767    0.664639     6.84525  0.000347616
4540  -0.0566277    0.665856     6.76711  -0.000374654
4550  -0.0529836    0.667008     6.49553  -2.3937e-05
4560   -0.056149    0.666007     6.53447  0.000250963
4570  -0.0580029    0.665421     6.68969  -0.000156647
4580   -0.053016    0.666998     7.34724  -0.000267229
4590  -0.0526583    0.667111       7.076  0.000274495
4600  -0.0585059    0.665262     6.84419  0.000341566
4610  -0.0594896    0.664951     7.07642  -0.000179604
4620  -0.0549138    0.666398     7.54113  -0.00021322
4630  -0.0552252    0.666299     7.38614  2.00545e-05
4640  -0.0553149    0.666271      6.9596  0.000232718
4650  -0.0598796    0.664828     7.58049  0.000401286
4660  -0.0633407    0.663733     7.50269  -0.000259652
4670  -0.0546865     0.66647     8.54757  -0.000372006
4680  -0.0559006    0.666086     8.62522  0.000234386
4690  -0.0593743    0.664987     8.19921  2.0469e-05
4700  -0.0563099    0.665956     8.50859  5.50931e-05
4710  -0.0604761    0.664639     9.28417  0.000428767
4720  -0.0648853    0.663245      8.6256  0.000350849
4730  -0.0674931     0.66242     9.05213  -2.31832e-05
4740  -0.0644216    0.663391     9.55518  -0.000227968
4750  -0.0629337    0.663862     8.81828  -0.000126207
4760  -0.0618975    0.664189     9.12781  0.000342527
4770  -0.0697843    0.661695     8.70215  0.000400363
4780  -0.0699047    0.661657      9.6715  2.35129e-05
4790  -0.0702545    0.661547     7.38387  0.000173186
4800  -0.0733684    0.660562     8.31474  -0.000230079
4810   -0.065653    0.663002     9.39818  -0.000530349
4820  -0.0627615    0.663916     9.55351  0.000277577
4830  -0.0712045    0.661246     9.63165  0.000323971
4840  -0.0692409    0.661867     8.89418  -0.000196794
4850  -0.0672686    0.662491     8.81714  0.000151793
4860  -0.0722767    0.660907     8.54617  0.000560082
4870  -0.0784702    0.658949     9.32174  -8.08679e-05
4880  -0.0706594    0.661419     8.15766  -0.000150041
4890  -0.0754694    0.659898     9.94118  0.000305849
4900  -0.0767764    0.659484     9.47609  -6.89369e-05
4910  -0.0740907    0.660334     9.94077  -9.87612e-06
4920  -0.0765788    0.659547     9.24284  -0.000222926
4930  -0.0696322    0.661743     8.38883  -0.000163762
4940  -0.0733036    0.660582      9.2811  0.000119007
4950  -0.0720123    0.660991     8.77699  -0.000236318
4960  -0.0685772    0.662077     8.34974  -9.42785e-05
4970  -0.0701267    0.661587     7.41921  8.37613e-05
4980  -0.0702525    0.661547     7.61322  0.00017984
4990  -0.0737235     0.66045     7.84571  0.000275918
