Time   Number   
ps   
0          30          25
10          27          27
20          32          23
30          27          33
40          26          24
50          25          25
60          27          32
70          29          27
80          31          23
90          28          25
100          26          31
110          25          30
120          27          31
130          26          26
140          27          29
150          28          27
160          33          25
170          29          29
180          23          34
190          29          22
200          25          31
210          29          26
220          30          24
230          25          28
240          30          23
250          26          25
260          28          20
270          27          28
280          27          25
290          28          28
300          27          31
310          27          23
320          26          26
330          26          28
340          27          25
350          33          19
360          25          33
370          24          33
380          22          32
390          29          30
400          28          26
410          26          27
420          27          29
430          27          28
440          24          27
450          27          30
460          29          28
470          26          28
480          25          30
490          30          21
500          29          22
510          31          18
520          29          27
530          27          29
540          24          26
550          26          22
560          26          27
570          25          25
580          24          25
590          26          28
600          27          21
610          27          24
620          24          31
630          26          28
640          23          27
650          27          25
660          29          21
670          30          26
680          25          36
690          29          27
700          24          30
710          26          21
720          27          29
730          28          24
740          28          28
750          24          32
760          29          26
770          27          22
780          25          30
790          24          23
800          26          28
810          23          31
820          26          25
830          25          30
840          26          27
850          27          28
860          25          26
870          26          26
880          28          28
890          29          26
900          27          25
910          26          27
920          29          29
930          26          28
940          30          22
950          25          28
960          27          29
970          28          30
980          25          30
990          27          33
1000          24          33
1010          27          21
1020          26          31
1030          26          31
1040          27          26
1050          27          33
1060          25          31
1070          25          26
1080          27          25
1090          24          30
1100          26          28
1110          23          32
1120          26          25
1130          24          25
1140          25          28
1150          25          25
1160          23          24
1170          25          30
1180          25          29
1190          24          28
1200          25          28
1210          24          29
1220          25          27
1230          25          24
1240          26          27
1250          25          27
1260          27          25
1270          21          31
1280          22          26
1290          28          23
1300          26          24
1310          27          24
1320          21          32
1330          26          30
1340          27          28
1350          25          25
1360          28          24
1370          25          26
1380          22          32
1390          26          24
1400          26          26
1410          25          29
1420          25          25
1430          26          18
1440          27          21
1450          23          22
1460          24          27
1470          25          24
1480          25          22
1490          25          24
1500          27          18
1510          25          29
1520          25          29
1530          26          21
1540          29          22
1550          27          23
1560          30          20
1570          28          23
1580          27          29
1590          28          25
1600          27          25
1610          29          22
1620          25          25
1630          28          24
1640          26          29
1650          27          22
1660          24          25
1670          25          24
1680          26          23
1690          26          25
1700          28          19
1710          28          22
1720          27          24
1730          27          18
1740          30          26
1750          25          25
1760          28          23
1770          26          18
1780          29          27
1790          29          22
1800          28          26
1810          32          19
1820          33          16
1830          25          26
1840          28          26
1850          31          19
1860          26          25
1870          28          21
1880          26          29
1890          25          23
1900          23          25
1910          24          20
1920          28          24
1930          28          19
1940          25          28
1950          28          26
1960          27          25
1970          26          29
1980          26          25
1990          28          24
2000          28          27
2010          28          25
2020          27          18
2030          31          25
2040          28          25
2050          26          25
2060          24          23
2070          24          28
2080          27          22
2090          26          22
2100          28          23
2110          26          25
2120          30          18
2130          28          20
2140          30          21
2150          27          21
2160          28          22
2170          26          26
2180          27          25
2190          28          30
2200          31          23
2210          28          29
2220          31          25
2230          28          29
2240          25          32
2250          27          24
2260          28          23
2270          29          31
2280          25          31
2290          28          27
2300          31          23
2310          28          31
2320          23          32
2330          28          26
2340          28          25
2350          31          22
2360          26          29
2370          26          32
2380          26          37
2390          27          32
2400          27          28
2410          28          32
2420          25          32
2430          25          32
2440          29          29
2450          27          32
2460          28          26
2470          29          23
2480          31          25
2490          32          31
2500          28          25
2510          30          28
2520          28          34
2530          29          28
2540          29          21
2550          29          27
2560          28          28
2570          30          26
2580          27          29
2590          29          23
2600          27          30
2610          25          29
2620          28          29
2630          28          25
2640          28          26
2650          27          24
2660          30          22
2670          30          20
2680          25          28
2690          27          27
2700          28          25
2710          28          29
2720          26          27
2730          30          30
2740          26          34
2750          26          31
2760          27          35
2770          28          25
2780          25          27
2790          24          34
2800          27          29
2810          26          29
2820          26          30
2830          29          29
2840          27          24
2850          27          24
2860          30          30
2870          27          29
2880          28          27
2890          25          34
2900          28          28
2910          24          29
2920          25          29
2930          25          29
2940          23          30
2950          26          28
2960          26          32
2970          23          25
2980          25          32
2990          24          30
3000          27          28
3010          28          27
3020          25          29
3030          26          32
3040          25          30
3050          29          27
3060          24          35
3070          26          31
3080          25          31
3090          24          31
3100          28          31
3110          28          27
3120          28          26
3130          25          36
3140          26          32
3150          29          30
3160          24          25
3170          24          29
3180          27          27
3190          26          29
3200          25          30
3210          25          32
3220          29          27
3230          26          33
3240          27          34
3250          28          35
3260          31          29
3270          26          31
3280          26          33
3290          28          30
3300          25          34
3310          25          29
3320          29          27
3330          29          32
3340          27          30
3350          29          31
3360          28          32
3370          26          31
3380          30          39
3390          27          33
3400          28          36
3410          27          29
3420          25          33
3430          26          28
3440          32          27
3450          26          33
3460          27          34
3470          26          34
3480          28          31
3490          28          22
3500          25          32
3510          30          29
3520          27          27
3530          29          21
3540          28          37
3550          26          32
3560          26          30
3570          31          23
3580          28          25
3590          24          32
3600          24          31
3610          25          28
3620          25          29
3630          28          33
3640          28          28
3650          31          28
3660          27          29
3670          31          27
3680          27          30
3690          31          28
3700          26          30
3710          30          27
3720          30          31
3730          27          30
3740          27          34
3750          27          28
3760          31          24
3770          27          32
3780          30          28
3790          28          27
3800          30          29
3810          32          26
3820          27          33
3830          32          24
3840          29          31
3850          28          30
3860          29          33
3870          31          28
3880          25          36
3890          30          29
3900          32          33
3910          29          32
3920          29          28
3930          31          28
3940          28          36
3950          31          27
3960          29          25
3970          30          29
3980          31          27
3990          28          30
4000          29          37
4010          30          30
4020          30          30
4030          27          28
4040          30          26
4050          27          25
4060          25          35
4070          32          26
4080          31          23
4090          29          28
4100          31          28
4110          25          25
4120          33          21
4130          33          25
4140          27          26
4150          28          29
4160          29          26
4170          31          28
4180          27          28
4190          25          31
4200          31          20
4210          31          25
4220          33          25
4230          28          22
4240          27          28
4250          31          24
4260          24          30
4270          26          31
4280          32          26
4290          31          28
4300          29          29
4310          28          29
4320          31          26
4330          28          29
4340          27          27
4350          26          31
4360          28          32
4370          24          36
4380          29          30
4390          26          33
4400          32          25
4410          31          30
4420          33          23
4430          30          32
4440          34          26
4450          32          27
4460          29          29
4470          28          34
4480          30          29
4490          29          28
4500          27          29
4510          28          33
4520          29          25
4530          26          30
4540          27          26
4550          25          34
4560          27          29
4570          28          30
4580          25          29
4590          24          32
4600          29          32
4610          26          32
4620          27          27
4630          29          25
4640          27          30
4650          23          37
4660          24          33
4670          24          32
4680          26          31
4690          24          33
4700          27          27
4710          28          26
4720          27          29
4730          28          28
4740          30          29
4750          26          31
4760          33          29
4770          29          33
4780          30          23
4790          30          30
4800          29          27
4810          26          26
4820          28          29
4830          28          25
4840          29          36
4850          30          28
4860          28          24
4870          30          26
4880          28          29
4890          29          28
4900          30          29
4910          27          28
4920          32          24
4930          28          34
4940          26          31
4950          27          30
4960          28          24
4970          30          32
4980          27          28
4990          31          24
5000          30          23
5010          27          23
5020          28          19
5030          23          30
5040          28          21
5050          24          31
5060          30          16
5070          25          25
5080          25          27
5090          28          22
5100          25          25
5110          26          19
5120          27          27
5130          29          28
5140          30          29
5150          29          25
5160          27          27
5170          26          23
5180          27          20
5190          27          24
5200          27          20
5210          29          18
5220          23          28
5230          28          21
5240          29          24
5250          27          22
5260          29          27
5270          26          26
5280          28          28
5290          25          28
5300          32          22
5310          28          20
5320          28          24
5330          27          26
5340          27          27
5350          28          18
5360          27          27
5370          25          32
5380          26          25
5390          23          25
5400          24          24
5410          25          24
5420          22          25
5430          29          27
5440          26          28
5450          22          28
5460          24          23
5470          22          31
5480          27          24
5490          28          28
5500          25          26
5510          24          34
5520          26          21
5530          25          33
5540          23          30
5550          25          30
5560          25          32
5570          28          28
5580          28          28
5590          23          33
5600          26          25
5610          23          25
5620          32          27
5630          25          29
5640          27          29
5650          31          25
5660          25          22
5670          26          31
5680          28          29
5690          26          28
5700          27          27
5710          29          30
5720          25          25
5730          30          23
5740          22          32
5750          23          31
5760          28          25
5770          28          28
5780          28          28
5790          28          27
5800          29          26
5810          29          27
5820          29          21
5830          22          31
5840          23          24
5850          26          24
5860          27          26
5870          24          26
5880          25          29
5890          23          28
5900          26          26
5910          27          25
5920          26          25
5930          26          27
5940          25          27
5950          29          19
5960          24          26
5970          26          29
5980          30          29
5990          26          30
6000          25          32
6010          24          25
6020          26          31
6030          29          22
6040          23          33
6050          26          30
6060          27          31
6070          28          27
6080          27          28
6090          29          23
6100          25          30
6110          26          26
6120          25          27
6130          27          26
6140          23          32
6150          23          31
6160          26          26
6170          29          23
6180          23          34
6190          25          25
6200          24          32
6210          25          27
6220          22          29
6230          26          27
6240          28          24
6250          21          27
6260          29          20
6270          25          23
6280          29          23
6290          26          27
6300          23          30
6310          25          26
6320          29          24
6330          27          22
6340          23          30
6350          24          28
6360          25          22
6370          21          26
6380          25          25
6390          25          22
6400          25          21
6410          25          20
6420          24          24
6430          22          23
6440          21          25
6450          23          24
6460          23          22
6470          24          19
6480          20          24
6490          25          20
6500          25          19
6510          21          27
6520          24          17
6530          24          25
6540          23          26
6550          24          23
6560          25          21
6570          25          23
6580          24          24
6590          23          24
6600          22          29
6610          29          23
6620          26          22
6630          25          22
6640          24          23
6650          23          25
6660          25          22
6670          25          20
6680          24          22
6690          21          23
6700          22          25
6710          21          23
6720          24          24
6730          28          20
6740          28          21
6750          28          18
6760          25          21
6770          21          25
6780          25          23
6790          26          18
6800          27          21
6810          23          22
6820          30          18
6830          25          23
6840          26          23
6850          23          25
6860          27          23
6870          23          27
6880          26          21
6890          25          22
6900          25          22
6910          27          20
6920          24          25
6930          29          19
6940          26          20
6950          23          24
6960          26          25
6970          27          28
6980          26          26
6990          28          22
7000          23          26
7010          26          23
7020          25          21
7030          21          23
7040          24          29
7050          19          23
7060          25          25
7070          22          28
7080          22          20
7090          22          28
7100          21          25
7110          25          22
7120          26          19
7130          26          21
7140          26          21
7150          26          24
7160          24          23
7170          17          30
7180          22          24
7190          23          26
7200          22          25
7210          23          22
7220          25          25
7230          27          22
7240          29          25
7250          28          24
7260          26          19
7270          24          27
7280          25          28
7290          28          28
7300          29          23
7310          26          27
7320          24          23
7330          27          23
7340          21          27
7350          24          29
7360          28          21
7370          26          25
7380          23          23
7390          27          27
7400          28          21
7410          28          22
7420          26          20
7430          26          19
7440          28          17
7450          26          23
7460          24          24
7470          25          21
7480          26          25
7490          25          21
7500          25          21
7510          24          25
7520          23          25
7530          22          21
7540          24          23
7550          24          25
7560          23          25
7570          23          23
7580          27          26
7590          27          24
7600          23          26
7610          23          24
7620          23          26
7630          24          27
7640          26          27
7650          25          20
7660          25          24
7670          23          25
7680          25          18
7690          25          21
7700          27          19
7710          25          22
7720          26          25
7730          22          27
7740          27          24
7750          26          22
7760          24          22
7770          27          22
7780          26          25
7790          25          24
7800          24          24
7810          23          23
7820          26          23
7830          25          25
7840          23          23
7850          27          21
7860          23          26
7870          24          22
7880          23          25
7890          25          21
7900          24          24
7910          23          22
7920          24          23
7930          23          21
7940          22          21
7950          25          26
7960          26          24
7970          23          21
7980          26          21
7990          26          24
8000          27          21
8010          24          22
8020          25          22
8030          25          21
8040          23          25
8050          22          22
8060          23          24
8070          26          17
8080          25          20
8090          23          24
8100          26          21
8110          26          20
8120          26          19
8130          24          24
8140          25          23
8150          23          24
8160          24          22
8170          27          24
8180          25          28
8190          25          21
8200          20          28
8210          25          22
8220          26          21
8230          22          26
8240          25          24
8250          27          23
8260          23          24
8270          21          30
8280          26          19
8290          23          17
8300          21          21
8310          24          24
8320          27          28
8330          21          25
8340          24          24
8350          22          24
8360          25          23
8370          27          24
8380          24          22
8390          28          24
8400          26          27
8410          24          23
8420          24          22
8430          24          21
8440          22          27
8450          25          26
8460          25          22
8470          22          27
8480          24          25
8490          27          25
8500          23          32
8510          23          27
8520          24          27
8530          23          26
8540          26          22
8550          26          24
8560          25          23
8570          26          21
8580          24          25
8590          23          26
8600          25          23
8610          26          19
8620          29          15
8630          26          19
8640          25          22
8650          23          24
8660          26          21
8670          25          24
8680          25          22
8690          24          26
8700          26          22
8710          24          19
8720          25          21
8730          23          23
8740          26          22
8750          23          23
8760          23          19
8770          24          25
8780          24          25
8790          28          21
8800          30          24
8810          29          17
8820          28          19
8830          27          21
8840          24          22
8850          27          21
8860          23          26
8870          28          23
8880          26          26
8890          30          22
8900          28          24
8910          28          28
8920          24          28
8930          29          24
8940          27          22
8950          28          24
8960          28          24
8970          26          25
8980          26          25
8990          28          23
9000          26          23
9010          27          24
9020          27          19
9030          27          25
9040          31          21
9050          26          25
9060          28          22
9070          28          23
9080          31          21
9090          26          19
9100          27          21
9110          24          27
9120          28          24
9130          25          29
9140          26          27
9150          24          29
9160          28          26
9170          28          23
9180          24          29
9190          25          27
9200          25          25
9210          22          33
9220          26          24
9230          25          33
9240          23          28
9250          27          27
9260          31          27
9270          25          31
9280          28          25
9290          27          24
9300          27          21
9310          25          29
9320          28          27
9330          25          23
9340          26          25
9350          28          23
9360          23          28
9370          29          21
9380          30          24
9390          25          28
9400          25          24
9410          26          25
9420          24          25
9430          26          24
9440          26          23
9450          29          23
9460          27          22
9470          23          25
9480          28          25
9490          22          27
9500          26          23
9510          26          27
9520          28          26
9530          30          20
9540          27          19
9550          25          24
9560          22          30
9570          28          23
9580          30          22
9590          29          26
9600          27          27
9610          26          25
9620          25          22
9630          31          24
9640          26          25
9650          28          21
9660          27          23
9670          30          24
9680          30          23
9690          24          31
9700          29          22
9710          30          23
9720          25          29
9730          26          31
9740          24          26
9750          32          19
9760          27          23
9770          25          25
9780          26          25
9790          25          27
9800          28          20
9810          25          21
9820          28          19
9830          29          25
9840          30          18
9850          27          21
9860          24          21
9870          27          18
9880          28          19
9890          22          25
9900          28          19
9910          25          24
9920          25          22
9930          25          24
9940          25          26
9950          24          25
9960          25          21
9970          27          27
9980          26          24
9990          26          26
10000          27          22
