Time   C(t)   
ps   
0           1           1  4.83088e-10   0.0266232
10    0.739808    0.753532   -0.183744   0.0154387
20    0.691226    0.707513    0.891161   0.0042542
30    0.654724    0.672936     1.20339  0.00339982
40     0.62323    0.643103    0.273624  0.00286388
50    0.597447     0.61868    0.602757  0.00242179
60    0.574794    0.597222   -0.146093  0.00219685
70     0.55351     0.57706   -0.530079  0.00198507
80    0.535093    0.559614    -1.27794  0.00186339
90    0.516242    0.541758    0.114217  0.00183162
100     0.49846    0.524914    0.278135  0.00161498
110    0.483942    0.511162     1.13906  0.00142194
120    0.470022    0.497976     1.20377  0.00142049
130    0.455533    0.484251      1.0201  0.00131242
140    0.443773    0.473112     1.15141  0.00126048
150    0.430323    0.460371     1.56527   0.0012256
160    0.419261    0.449893     1.18323  0.00109693
170    0.408384    0.439589     1.03276  0.00105212
180    0.398219     0.42996     2.05974  0.00101071
190     0.38817    0.420441     1.71032  0.00101539
200    0.377911    0.410724     1.64361  0.000948468
210    0.369201    0.402473     1.72488  0.000911282
220    0.359685    0.393459     1.44258  0.000855225
230    0.352096     0.38627     1.93919  0.000789614
240    0.343893      0.3785     1.64027  0.000837739
250    0.335341    0.370399     1.72329  0.000744565
260    0.329002    0.364394     1.02552  0.000702271
270    0.321296    0.357095     2.35151  0.000711614
280     0.31477    0.350913     2.58349  0.000588118
290    0.309534    0.345953     2.54912  0.000549662
300    0.303776    0.340499     2.20007  0.000564091
310    0.298252    0.335266     1.96722  0.000533488
320    0.293107    0.330392     1.80059  0.000510669
330    0.288038    0.325591      2.2975  0.00051266
340    0.282853     0.32068     1.63319  0.000604035
350    0.275958    0.314148     1.23498   0.0005981
360    0.270891    0.309349    0.736921  0.000521348
370    0.265531    0.304271  -0.00956459  0.000491269
380    0.261066    0.300042   0.0727429  0.000439881
390    0.256733    0.295937     1.05074  0.000497828
400    0.251109     0.29061     1.13319  0.000497892
410    0.246775    0.286505    0.966795  0.000491831
420    0.241273    0.281292     1.61331  0.000466884
430    0.237438     0.27766     1.94419  0.000397317
440    0.233327    0.273765      1.7284  0.000424077
450    0.228956    0.269625     1.87746  0.000392744
460    0.225472    0.266325     1.57871  0.000432196
470    0.220312    0.261437     1.09696  0.00046621
480    0.216147    0.257492     1.51149  0.000387216
490    0.212568    0.254102     1.04625  0.000407834
500    0.207991    0.249766     1.21223  0.000354613
510    0.205476    0.247383    0.514505  0.000289682
520    0.202197    0.244278     1.17778  0.000408486
530    0.197306    0.239645     1.92454  0.00040565
540    0.194084    0.236593    0.796041  0.000324265
550    0.190821    0.233501     0.51376  0.000318573
560    0.187713    0.230557     1.16001  0.000272143
570    0.185378    0.228346     1.37632  0.000297298
580    0.181767    0.224925     1.14349  0.000330563
590    0.178766    0.222083     1.55747  0.000248462
600    0.176797    0.220218     1.82254  0.000237258
610    0.174021    0.217588    0.562182  0.000235922
620    0.172079    0.215748     1.67287  0.000251979
630    0.168982    0.212814      1.9048  0.000250629
640    0.167066       0.211     1.48967  0.000252125
650    0.163939    0.208038     1.45622  0.000250769
660    0.162051    0.206249     1.43946   0.0002165
670    0.159609    0.203936     1.97016  0.000174803
680    0.158555    0.202938    0.957514  0.000213839
690    0.155332    0.199885     1.12402  0.000230641
700    0.153942    0.198568     1.14015  0.000189871
710    0.151535    0.196288     1.22286  0.000223424
720    0.149474    0.194335     1.60411  0.000238677
730    0.146762    0.191766     1.80288  0.000195768
740    0.145558    0.190627    0.608709  0.000134298
750    0.144076    0.189222    0.641347  0.000180838
760    0.141942    0.187201     1.45382  0.000169189
770    0.140692    0.186017      2.0007   0.0001325
780    0.139292     0.18469     2.64706  0.000155958
790    0.137573    0.183062     2.53067  0.000163728
800    0.136017    0.181588      2.5806  0.000174341
810    0.134086    0.179759     2.16558  0.000173806
820    0.132541    0.178296     2.06588  0.000107062
830    0.131945    0.177731        2.48  0.000139982
840    0.129741    0.175644     2.06566  0.000194379
850    0.128057    0.174048     2.47977  0.00017148
860    0.126312    0.172395     2.28028  0.000138165
870    0.125294    0.171431     2.08084  0.000164688
880    0.123018    0.169275     2.52882  0.000211941
890    0.121055    0.167415     1.68293  0.000196475
900    0.119088    0.165553    0.704356  8.9645e-05
910    0.119262    0.165717     1.13469  0.000110695
920    0.116875    0.163456     1.54929  0.000199417
930    0.115274    0.161939     2.09663  0.000165919
940    0.113556    0.160312     1.25054  0.000134136
950    0.112591    0.159398    0.819301  0.000112727
960    0.111302    0.158177     1.11748  0.000132869
970    0.109934    0.156881      1.5483  0.000212767
980    0.107046    0.154146     1.81384  0.000206496
990    0.105804    0.152969     1.46517  0.000123476
1000    0.104577    0.151806     1.49815  0.000129444
1010    0.103215    0.150516      1.4978  0.000122106
1020    0.102135    0.149493     2.32721  9.66646e-05
1030    0.101281    0.148685     1.53125  0.000105474
1040    0.100025    0.147495     1.51451  0.000120036
1050   0.0988807    0.146411     2.27717  0.000144203
1060   0.0971411    0.144763     2.14498  9.85432e-05
1070   0.0969098    0.144544     2.44315  8.16025e-05
1080   0.0955091    0.143217     1.41474  0.000107604
1090   0.0947578    0.142505     1.53059  0.000106936
1100   0.0933703    0.141191     1.76272  9.17543e-05
1110   0.0929227    0.140767     1.24845  3.42298e-05
1120   0.0926857    0.140543     1.29804  6.51795e-05
1130   0.0916191    0.139532     0.73424  0.000105806
1140   0.0905696    0.138538    0.319155  7.80258e-05
1150   0.0900586    0.138054    0.833579  0.000145951
1160   0.0876506    0.135773    0.800747  0.000150044
1170   0.0870577    0.135211    0.568054  8.06823e-05
1180    0.086037    0.134245    0.882536  6.82265e-05
1190   0.0856932    0.133919     1.61257  5.96706e-05
1200   0.0848436    0.133114      1.2311  4.51848e-05
1210   0.0847895    0.133063    0.567551  6.67609e-05
1220   0.0835083    0.131849    0.119521  0.000106822
1230    0.082653    0.131039    0.766214  6.61116e-05
1240   0.0821861    0.130597    0.285578  6.62737e-05
1250   0.0813275    0.129784     1.44609  9.2816e-05
1260   0.0803298    0.128838     1.04799  0.000112605
1270   0.0790754     0.12765    0.865472  0.000106937
1280    0.078191    0.126812    0.948152  9.64068e-05
1290   0.0771473    0.125824    0.931768  0.000150691
1300   0.0751772    0.123958    0.583595  0.00013034
1310   0.0745405    0.123354     1.21369  5.38919e-05
1320   0.0740994    0.122937    0.848748  7.37291e-05
1330   0.0730659    0.121958    0.433696  0.000102483
1340   0.0720497    0.120995    0.732393  7.70446e-05
1350    0.071525    0.120498    0.300763  5.64639e-05
1360   0.0709205    0.119925    0.499376  7.54129e-05
1370   0.0700168    0.119069    0.980239  6.46587e-05
1380   0.0696273      0.1187    0.731373  3.90176e-05
1390   0.0692364     0.11833    0.133913  0.00011865
1400   0.0672543    0.116453  -0.0979542  0.000113856
1410   0.0669593    0.116173   -0.579141  6.44036e-05
1420   0.0659662    0.115232    0.681558  0.000120371
1430   0.0645519    0.113893   0.0679079    4.57e-05
1440   0.0650522    0.114367    0.564944  5.89259e-05
1450   0.0633734    0.112776    0.482329  8.59894e-05
1460   0.0633324    0.112738    0.200257  2.1125e-05
1470   0.0629509    0.112376    0.813761  2.41689e-05
1480    0.062849     0.11228    0.514902  7.9502e-05
1490   0.0613608     0.11087    0.565203  3.7349e-05
1500   0.0621021    0.111572    0.299192  -9.75858e-06
1510    0.061556    0.111055    0.332429  3.24946e-05
1520   0.0614522    0.110956  -0.0325488  2.9549e-05
1530    0.060965    0.110495    0.232798  6.39528e-05
1540   0.0601731    0.109745    0.581149  8.33297e-05
1550   0.0592984    0.108916   -0.198605  5.11061e-05
1560    0.059151    0.108777   -0.314992  4.51904e-05
1570   0.0583946     0.10806    0.563956  7.36957e-05
1580   0.0576771    0.107381    0.746024  5.75928e-05
1590   0.0572428    0.106969    0.265015  4.14666e-05
1600   0.0568477    0.106595    0.115682  1.81338e-05
1610   0.0568801    0.106626    0.132212  4.16579e-05
1620   0.0560146    0.105806    0.414218  9.58515e-05
1630    0.054963     0.10481   -0.099574  8.89109e-05
1640   0.0542364    0.104121    -0.34857  5.6373e-05
1650   0.0538356    0.103742   -0.348731  5.44788e-05
1660   0.0531468    0.103089     0.49719  3.09875e-05
1670   0.0532158    0.103155    0.165222  1.36415e-05
1680    0.052874    0.102831   -0.100027  4.14234e-05
1690   0.0523874     0.10237    0.513589  1.78205e-05
1700   0.0525175    0.102493    0.364014  3.13163e-05
1710    0.051761    0.101777     0.36382  8.29572e-05
1720   0.0508584    0.100922    0.529779  9.55561e-05
1730   0.0498499   0.0999662    0.845184  8.43974e-05
1740   0.0491705   0.0993226     1.07729  7.01185e-05
1750   0.0484475   0.0986378     1.27644  8.68948e-05
1760   0.0474326   0.0976764    0.828558  7.66888e-05
1770   0.0469138   0.0971849    0.878163  5.19359e-05
1780   0.0463938   0.0966924     1.17665  4.99843e-05
1790   0.0459141    0.096238    0.828201  5.74017e-05
1800   0.0452458    0.095605    0.463289  8.57159e-05
1810   0.0441998   0.0946141    0.628972  0.000100543
1820   0.0432349   0.0937002    0.247562  7.7772e-05
1830   0.0426443   0.0931407    0.512488  7.48571e-05
1840   0.0417378    0.092282    0.396441  0.000115928
1850   0.0403258   0.0909444     0.74476  0.000102514
1860   0.0396875   0.0903398      1.2259  7.96758e-05
1870   0.0387322    0.089435    0.860775  5.45885e-05
1880   0.0385958   0.0893057     1.24215  2.31449e-05
1890   0.0382694   0.0889965     1.12578  3.69189e-05
1900   0.0378574   0.0886062     1.22499  6.87081e-05
1910   0.0368952   0.0876948     1.19205  5.71968e-05
1920   0.0367134   0.0875226    0.711021  7.60015e-06
1930   0.0367432   0.0875508     1.20843  1.82308e-05
1940   0.0363488   0.0871772     1.17487  6.60535e-05
1950   0.0354221   0.0862994    0.694038  8.42625e-05
1960   0.0346636   0.0855809     0.56151  7.81287e-06
1970   0.0352659   0.0861514    0.926309  4.72367e-06
1980   0.0345691   0.0854914    0.909488  3.56158e-05
1990   0.0345535   0.0854767    0.727097   2.506e-05
2000   0.0340679   0.0850166     1.12515  4.32786e-05
2010    0.033688   0.0846567    0.942628  3.58999e-05
2020   0.0333499   0.0843365    0.876154  3.06206e-05
2030   0.0330756   0.0840766     1.12463  1.56617e-05
2040   0.0330367   0.0840398    0.743173  1.73785e-06
2050   0.0330408   0.0840437    0.726303  3.94452e-05
2060   0.0322478   0.0832925     1.47269  5.78158e-05
2070   0.0318845   0.0829484    0.858733  4.17789e-05
2080   0.0314122    0.082501    0.675969  5.3778e-05
2090   0.0308089   0.0819296    0.609997  3.76834e-05
2100   0.0306585   0.0817871    0.510382  5.73053e-05
2110   0.0296628   0.0808439    0.726157  5.08863e-05
2120   0.0296408    0.080823     1.14079  2.82778e-05
2130   0.0290973   0.0803082    0.991391  5.00557e-05
2140   0.0286397   0.0798747    0.908338  8.28614e-05
2150     0.02744   0.0787384    0.991472  3.72224e-05
2160   0.0278952   0.0791695    0.261273  -9.52743e-06
2170   0.0276306   0.0789189    0.808853  6.36602e-05
2180    0.026622   0.0779635    0.974538  3.31254e-05
2190   0.0269681   0.0782913    0.277576  4.20629e-05
2200   0.0257808   0.0771666     0.99097  1.46328e-05
2210   0.0266754   0.0780141    0.575998  -2.69514e-05
2220   0.0263198   0.0776772     0.59282  2.79141e-05
2230   0.0261171   0.0774852    0.775195  -2.37891e-05
2240   0.0267956   0.0781279     1.10653  -1.60738e-05
2250   0.0264386   0.0777898     1.60434  3.57398e-05
2260   0.0260808   0.0774508     2.13522  3.75612e-06
2270   0.0263635   0.0777186     1.33903  -1.72367e-05
2280   0.0264255   0.0777773     1.98588  1.2648e-05
2290   0.0261105    0.077479     1.67056  3.48616e-05
2300   0.0257283   0.0771169     2.35057  4.93994e-05
2310   0.0251225   0.0765431     2.03531  3.72661e-05
2320    0.024983   0.0764109      2.0186  3.40506e-05
2330   0.0244415    0.075898      1.6204  4.86226e-05
2340   0.0240105   0.0754897     1.96853  4.09362e-05
2350   0.0236228   0.0751225     1.60353  7.01414e-05
2360   0.0226077   0.0741609      1.4876  5.79585e-05
2370   0.0224636   0.0740244     1.42105  1.55386e-05
2380   0.0222969   0.0738665     2.05116  1.44402e-05
2390   0.0221748   0.0737509     1.45393  1.44874e-05
2400   0.0220072    0.073592     1.65324  4.83292e-05
2410   0.0212083   0.0728353       1.587  1.79478e-05
2420   0.0216482    0.073252     1.33793  7.90954e-06
2430   0.0210501   0.0726854     1.03942  4.97132e-05
2440   0.0206539   0.0723102     1.00662  3.0604e-05
2450    0.020438   0.0721056    0.774369  1.21361e-06
2460   0.0206297   0.0722872    0.873822  -2.71393e-05
2470   0.0209808   0.0726198    0.641436  -2.03884e-05
2480   0.0210374   0.0726735    0.890238  -1.59063e-05
2490   0.0212989   0.0729211    0.840422  1.59971e-05
2500   0.0207175   0.0723704     1.02283  3.42388e-05
2510   0.0206141   0.0722725     1.03959  4.35078e-05
2520   0.0198473   0.0715461     1.02315  4.93018e-05
2530   0.0196281   0.0713385    0.857065  1.05043e-05
2540   0.0196373   0.0713471     1.25509  -1.92909e-05
2550   0.0200139   0.0717039    0.757597  -3.88635e-05
2560   0.0204145   0.0720834     1.03936  1.73878e-07
2570   0.0200104   0.0717006    0.873627  1.04941e-05
2580   0.0202046   0.0718846    0.475623  2.90137e-05
2590   0.0194301    0.071151    0.575367  2.55572e-05
2600   0.0196935   0.0714004    0.276944  1.64431e-05
2610   0.0191013   0.0708394   0.0946176  5.93043e-05
2620   0.0185074   0.0702769    0.658128  3.04594e-05
2630   0.0184921   0.0702624   -0.121595  4.9156e-05
2640   0.0175243   0.0693456    0.127272  7.48185e-05
2650   0.0169957   0.0688449   0.0443972  2.6142e-05
2660   0.0170015   0.0688504   0.0109659  4.08804e-06
2670    0.016914   0.0687675  -0.0722813  8.75341e-06
2680   0.0168264   0.0686845    0.226287  4.38636e-05
2690   0.0160367   0.0679365   0.0108037  4.16019e-05
2700   0.0159943   0.0678964    0.326064  3.47268e-05
2710   0.0153422   0.0672786    0.342625  3.24356e-05
2720   0.0153456   0.0672819    0.143461  2.78677e-05
2730   0.0147848   0.0667506     1.02233  6.91156e-05
2740   0.0139633   0.0659725    0.425402  5.39652e-05
2750   0.0137055   0.0657283    0.309145  5.41536e-05
2760   0.0128803   0.0649465   -0.371173  6.48978e-05
2770   0.0124075   0.0644988   0.0767761  5.44447e-05
2780   0.0117914   0.0639151    0.358701  5.10354e-05
2790   0.0113868   0.0635319    0.126219  4.28793e-05
2800   0.0109338   0.0631027    0.424884  6.08208e-05
2810   0.0101704   0.0623796    0.159472  3.12042e-05
2820   0.0103097   0.0625116    0.375101  9.89945e-06
2830  0.00997243   0.0621921    0.690167  -8.60868e-07
2840   0.0103269   0.0625279    0.441284  -1.27668e-05
2850   0.0102278    0.062434    0.142765  -4.4487e-06
2860   0.0104159   0.0626122    -0.22257  -6.84727e-06
2870   0.0103647   0.0625637    0.324849  3.18512e-07
2880   0.0104095   0.0626061   0.0428424  1.83711e-05
2890  0.00999729   0.0622156    0.158776  4.84976e-05
2900  0.00943956   0.0616873   0.0426965  8.59959e-05
2910  0.00827737   0.0605864   0.0593394  7.77476e-05
2920   0.0078846   0.0602144    0.291465  2.1185e-05
2930  0.00785367   0.0601851    0.142003  -3.92836e-05
2940  0.00867028   0.0609586    0.274645  -5.18747e-07
2950  0.00786405   0.0601949    0.573277  4.1866e-05
2960  0.00783296   0.0601655    0.340827  3.71717e-05
2970  0.00712061   0.0594907     0.27432  7.37696e-05
2980  0.00635756   0.0587679    0.290866  5.69036e-05
2990  0.00598254   0.0584127   0.0587079  4.73201e-05
3000  0.00541116   0.0578714   0.0090868  5.72292e-05
3010  0.00483796   0.0573284   -0.256519  5.8622e-05
3020  0.00423872   0.0567608   -0.422398  5.01912e-05
3030  0.00383413   0.0563776   -0.339523  3.92977e-05
3040  0.00345277   0.0560163   -0.936643  3.94124e-05
3050  0.00304589   0.0556309   -0.953578     5.8e-05
3060  0.00229277   0.0549175   -0.621756  2.73067e-05
3070  0.00249975   0.0551136   -0.157488  1.5082e-06
3080   0.0022626   0.0548889   -0.688247  2.86961e-05
3090  0.00192583   0.0545699   -0.671702  3.8686e-05
3100  0.00148888    0.054156   -0.439203  2.76248e-05
3110  0.00137333   0.0540466   -0.505531  -2.57047e-05
3120  0.00200298    0.054643   -0.588584  -1.57686e-05
3130  0.00168871   0.0543453    -1.03627  -2.33629e-05
3140  0.00247023   0.0550856   -0.920406  -8.37375e-06
3150  0.00185618   0.0545039   -0.704598  1.77464e-05
3160  0.00211531   0.0547494   -0.306578  -7.17526e-06
3170  0.00199969   0.0546399   -0.505823  1.78502e-05
3180   0.0017583   0.0544112   -0.853866  -9.36387e-07
3190  0.00201842   0.0546576    -1.00339  1.54424e-05
3200  0.00144945   0.0541187    -1.21886  3.80924e-05
3210  0.00125657    0.053936   -0.920292  3.44459e-05
3220  0.000760534   0.0534661    -1.06992  4.71545e-05
3230  0.000313477   0.0530426    -1.06967  3.97093e-05
3240  -3.36523e-05   0.0527138    -1.56742  1.83462e-06
3250  0.000276785   0.0530079    -1.60068  1.33103e-05
3260  -0.000299858   0.0524616    -1.28561  2.09068e-05
3270  -0.00014135   0.0526118     -1.4682  -1.96943e-05
3280  9.40275e-05   0.0528347    -1.18651  -1.97476e-05
3290  0.000253602   0.0529859    -1.45168  -1.94159e-06
3300  0.000132859   0.0528715    -1.25275  1.84759e-05
3310  -0.000115917   0.0526359    -1.55107  -6.80951e-07
3320  0.000146478   0.0528844    -1.13683  2.49984e-05
3330  -0.000615884   0.0521623    -1.18632  3.14128e-05
3340  -0.000481778   0.0522893   -0.987431  -5.70658e-06
3350  -0.000501753   0.0522704    -1.10343  3.28921e-05
3360  -0.00113962   0.0516662   -0.904378  8.43923e-06
3370  -0.000670537   0.0521105    -1.46865  2.9215e-05
3380  -0.00172392   0.0511127     -1.3357   5.635e-05
3390  -0.00179754   0.0510429    -1.41864  -1.20597e-05
3400  -0.00148273   0.0513411    -1.07035  -1.20705e-05
3410  -0.00155613   0.0512716    -0.82152  -1.08376e-05
3420  -0.00126598   0.0515465    -1.12046  6.07861e-06
3430  -0.0016777   0.0511565    -1.25302  5.1655e-05
3440  -0.00229907   0.0505679    -1.23646  4.39639e-05
3450  -0.00255698   0.0503236    -1.13676  1.01417e-05
3460  -0.00250191   0.0503757    -1.03733  -2.78046e-07
3470  -0.00255142   0.0503288    -1.18635  -1.86486e-05
3480  -0.00212894    0.050729    -1.35228  -1.21036e-05
3490  -0.00230935   0.0505581    -1.21954  2.33287e-05
3500  -0.00259551   0.0502871    -1.31873  -3.72049e-05
3510  -0.00156525    0.051263    -1.03708  -4.90914e-05
3520  -0.00161368   0.0512171   -0.871125  3.52423e-05
3530  -0.00227009   0.0505953   -0.871092  1.94237e-05
3540  -0.00200216   0.0508491   -0.804715  -1.35844e-05
3550  -0.00199841   0.0508527     -1.4515  8.9214e-06
3560  -0.00218059   0.0506801    -1.10319  1.02695e-05
3570  -0.0022038   0.0506581    -1.13644  3.82798e-05
3580  -0.00294618   0.0499549    -1.28564  1.96652e-05
3590  -0.0025971   0.0502856    -1.46807  1.10863e-06
3600  -0.00296835   0.0499339    -1.40192  4.78858e-05
3610  -0.00355482   0.0493784    -1.33536  1.31821e-05
3620   -0.003232   0.0496841    -1.60097  -3.90504e-05
3630  -0.00277381   0.0501182    -1.30269  9.22518e-06
3640  -0.0034165   0.0495094    -1.35223  4.14853e-05
3650  -0.00360352   0.0493322    -1.30256  2.14263e-05
3660  -0.00384502   0.0491035    -1.02049  1.06829e-05
3670  -0.00381717   0.0491298    -1.56799  3.97145e-06
3680  -0.00392445   0.0490282    -1.18669  -1.36401e-05
3690  -0.00354437   0.0493882     -1.4025  4.74257e-05
3700  -0.00487297   0.0481297    -1.68438  8.54984e-05
