Time   C(t)   
ps   
0           1           1  6.13095e-10   0.0345899
10    0.656705    0.912333     1.53963   0.0183392
20    0.633216    0.906335  -0.0438856  0.00208846
30    0.614936    0.901667     -0.8473  0.00169841
40    0.599248    0.897661   -0.421758  0.00120251
50    0.590886    0.895525   -0.186825  0.000987065
60    0.579507    0.892619    -1.08523  0.00129832
70    0.564919    0.888894   -0.705953   0.0010276
80    0.558955    0.887371  -0.0684241  0.000688082
90    0.551158     0.88538   -0.517628  0.000840029
100    0.542154    0.883081   -0.801315  0.000823435
110    0.534689    0.881174   -0.848385  0.00100794
120    0.521995    0.877933   -0.965655  0.000799254
130    0.518704    0.877092   -0.517489  0.000737214
140    0.507251    0.874168   -0.753484  0.00060533
150    0.506597    0.874001    -1.03805  0.000368351
160    0.499884    0.872286   -0.565736  0.000791551
170    0.490766    0.869958   -0.234402  0.000788447
180    0.484115    0.868259   -0.470535  0.000758046
190    0.475605    0.866086   -0.187125  0.000478333
200    0.474548    0.865816    -1.74686  0.000230291
210       0.471     0.86491   -0.211271  0.000646396
220     0.46162    0.862515    0.403565  0.000638261
230    0.458234     0.86165     1.37164  0.000283436
240    0.455952    0.861067     0.19024  0.000362948
250    0.450975    0.859797    -0.35368  0.000484097
260     0.44627    0.858595    0.828023  0.000550057
270    0.439974    0.856987   -0.117501  0.000504603
280    0.436178    0.856018    0.780376  0.000515035
290    0.429674    0.854357    0.520235  0.000795507
300    0.420267    0.851955    0.922947  0.000535844
310    0.418957     0.85162    0.260348  0.000154749
320    0.417173    0.851164    0.354811  0.000192572
330    0.415105    0.850636   -0.118216  0.000370498
340    0.409763    0.849272    0.142086  0.000703382
350    0.401038    0.847044  -0.0226465  0.000432853
360    0.401105    0.847061    0.826984  0.000115348
370    0.398731    0.846455    0.307326  0.000369143
380    0.393723    0.845176   -0.141624  0.000289612
390    0.392938    0.844976  -0.0709161  0.000469334
400    0.384336    0.842779    0.189478  0.000583096
410    0.381276    0.841998   -0.354072  2.33054e-05
420     0.38387     0.84266   -0.331703  0.000146346
430     0.37835     0.84125    0.165378  0.000132132
440    0.381227    0.841985    0.354003  0.000151855
450    0.375312    0.840475     0.21231  0.000411986
460    0.372987    0.839881    -0.16584  0.000403583
470    0.367241    0.838413    0.401442  0.000300032
480    0.366987    0.838349  -0.0235002  0.000148843
490    0.364264    0.837653    0.897485  0.00036771
500    0.359633     0.83647    0.992155  0.000177985
510    0.360704    0.836744    0.897231  0.000269187
520    0.354249    0.835096     1.63042  0.000116727
530     0.35837    0.836148     1.01492  0.000103271
540    0.352183    0.834568    0.566913  0.000289366
550    0.352582     0.83467    0.519059  -5.90637e-05
560    0.353365     0.83487   -0.379511  0.000290486
570    0.346773    0.833186   -0.969739  0.000290778
580    0.347549    0.833385   0.0467697  0.000248601
590    0.341801    0.831917   -0.614767  9.00596e-05
600    0.345748    0.832925    0.541728  -1.01179e-05
610    0.342003    0.831968   -0.544774  0.000268896
620     0.34037    0.831551   -0.332326  0.000221211
630    0.337579    0.830839     0.23461  0.000294058
640    0.334489     0.83005   -0.214386  0.000265652
650    0.332266    0.829482   -0.451004  -2.88486e-05
660    0.335066    0.830197    -0.82913  0.000266795
670     0.32693    0.828119   -0.639651  0.00042676
680    0.326531    0.828017   -0.734414  9.81718e-05
690    0.324966    0.827618   -0.144393  0.000229391
700    0.321943    0.826846    0.187102  0.000215235
710    0.320662    0.826519     0.37575  0.000103867
720    0.319866    0.826315   -0.191555  0.000250189
730    0.315658    0.825241   -0.451373  0.00031406
740    0.313584    0.824711    -1.01803  0.000139134
750    0.312875     0.82453   -0.758676  2.53171e-06
760    0.313534    0.824698    -1.79945  0.000203297
770    0.308809    0.823492   -0.239825  0.000590496
780    0.301724    0.821682  -0.0731538  0.000282551
790    0.303158    0.822049   -0.876961  3.3237e-05
800    0.301059    0.821513    -1.30232  0.000121722
810    0.300724    0.821427    0.445281  0.000195816
820    0.297143    0.820513    0.611675  0.000373346
830    0.293257     0.81952     0.39895  -8.9255e-05
840    0.298928    0.820968    0.327065  -4.94599e-05
850    0.294246    0.819773     0.89437  0.000374746
860    0.291433    0.819054  -0.0976002  0.000162977
870    0.290987     0.81894    0.705676  3.47197e-05
880    0.290738    0.818877   -0.310394  9.91747e-05
890    0.289003    0.818434    0.681692  7.45505e-05
900    0.289247    0.818496    0.539467  0.000179303
910    0.285417    0.817518    -0.12147  0.000229087
920    0.284666    0.817326    0.161733  0.000199854
930     0.28142    0.816497    0.894162  5.06967e-05
940    0.283652    0.817067    0.161456  8.10146e-05
950      0.2798    0.816084   -0.239917  0.000180796
960    0.280036    0.816144  -0.00385314   0.0001514
970    0.276772     0.81531    0.327111  0.000171602
980    0.276604    0.815268  -0.00429183  6.67542e-05
990    0.275437    0.814969   0.0195775  0.000337949
1000    0.269845    0.813542    0.468828  0.000283273
1010    0.269771    0.813523    0.208387  0.000138165
1020    0.267082    0.812836    0.468436  0.000229067
1030     0.26519    0.812353    0.185141  6.83993e-05
1040    0.265714    0.812487     1.29521  0.00014931
1050    0.262204     0.81159     0.44482  0.000124161
1060     0.26323    0.811852  -0.0512463  6.4081e-05
1070    0.260922    0.811263     0.25571  0.000215866
1080    0.258913     0.81075    0.492328   0.0002722
1090    0.255478    0.809873    0.397704  0.000105162
1100     0.25681    0.810213   -0.240816  -2.14383e-05
1110    0.255907    0.809982   -0.359356  0.000212598
1120    0.252558    0.809127     0.65713  0.000263843
1130     0.25063    0.808635    0.302411  0.000402066
1140    0.244517    0.807073    0.113948  0.000372225
1150    0.243185    0.806734    -0.14617  0.000117765
1160    0.242161    0.806472     0.18431  5.13613e-05
1170    0.242158    0.806471    0.892755  0.000225891
1180    0.237643    0.805318     1.60194  0.000123635
1190    0.239685     0.80584    0.538429  5.23061e-05
1200    0.236597    0.805051    0.419959  0.000278372
1210    0.234118    0.804418    0.822485  5.77331e-05
1220    0.235443    0.804756    0.727446  0.000191966
1230    0.230279    0.803438    0.208364  -3.96743e-06
1240    0.235522    0.804777    0.325173  -0.000199493
1250    0.234269    0.804456    0.206611  0.000311469
1260    0.229293    0.803186    0.538475  0.000467093
1270    0.224927    0.802071    0.467651  0.000204009
1280    0.225212    0.802144    0.821585  0.000147723
1290    0.221972    0.801316    0.396481  0.000277649
1300    0.219659    0.800726    0.703645  0.000236826
1310    0.217236    0.800107   -0.855791  4.47907e-05
1320    0.218764    0.800497   -0.572797  -6.96369e-05
1330    0.218628    0.800462   -0.171585  0.000290089
1340    0.212962    0.799015    0.892247  0.000332278
1350    0.211983    0.798765   -0.549642  0.000134571
1360     0.21027    0.798328   -0.360879  0.000213333
1370    0.207716    0.797676   -0.218563  -9.53697e-05
1380    0.212178    0.798815    0.961525  8.84384e-05
1390    0.205947    0.797224    0.206449  0.000492523
1400    0.202327      0.7963    0.183087  0.000236149
1410    0.201224    0.796018    0.915816  3.14631e-05
1420    0.201698    0.796139    0.489952  -0.000110705
1430    0.203439    0.796583    -0.31381  0.000168847
1440    0.198321    0.795277   -0.644405  0.000343201
1450    0.196575    0.794831   -0.455226  -0.00014777
1460    0.201277    0.796031    -1.09419  0.000180645
1470    0.192962    0.793908    -1.21148  0.000440111
1480    0.192474    0.793784    -1.30592  2.22325e-05
1490    0.192517    0.793794    -1.70828  5.41508e-05
1500    0.191391    0.793507     -1.0702  0.000277672
1510    0.186964    0.792376    -1.35336  2.25119e-05
1520    0.190941    0.793392     -1.4249  -5.16064e-05
1530    0.187996     0.79264    -2.08636  0.00017202
1540    0.187501    0.792513    -1.68471  0.000156604
1550    0.184864     0.79184    -1.75579  0.000258626
1560    0.182328    0.791193   -0.715805  0.000189538
1570    0.181073    0.790872   -0.739997  6.1246e-05
1580    0.181103     0.79088    -0.19707  0.000217196
1590    0.176729    0.789763   -0.952584   0.0002444
1600    0.176215    0.789631   -0.527734  0.000266843
1610    0.171392      0.7884  -0.0788071  0.000396546
1620    0.168284    0.787606   -0.952746  0.000224876
1630    0.166895    0.787251   -0.858353  0.000209285
1640    0.164099    0.786537   -0.480341  0.000339489
1650    0.160105    0.785517   -0.787021  0.000264519
1660    0.158808    0.785186   -0.291509  0.000135142
1670    0.157402    0.784827   -0.787667  0.000146335
1680    0.155882    0.784439   -0.740898  -4.90613e-05
1690    0.158383    0.785078    -1.09513  5.3212e-06
1700    0.155775    0.784412   -0.150415  0.000157724
1710    0.155229    0.784272   -0.079707  0.000507543
1720    0.145624     0.78182   -0.764005  0.000306077
1730    0.149107    0.782709   -0.433595  -0.000195629
1740    0.149537    0.782819  -0.00885982  -3.75666e-05
1750    0.149858    0.782901     -0.2214  0.000220102
1760    0.145135    0.781695    0.416659  0.000209354
1770    0.145671    0.781832   -0.386986  0.000193669
1780    0.141261    0.780705   -0.126315  0.000276435
1790    0.140143     0.78042    -1.09534  1.83575e-05
1800    0.140894    0.780612   -0.269231  0.000189456
1810    0.136354    0.779452   -0.505226  0.000255883
1820    0.135777    0.779305   -0.103622  0.000146264
1830    0.133428    0.778705   -0.103645  0.000351254
1840    0.128752    0.777511     0.32245  0.000302052
1850    0.127387    0.777162  -0.0087216  5.33685e-05
1860    0.127684    0.777238   -0.103322  -4.64827e-05
1870    0.128317      0.7774   -0.174815  0.000131454
1880    0.125055    0.776567   -0.363487  0.000215154
1890    0.124014    0.776301   -0.079776  0.000104216
1900    0.122971    0.776035    0.227388  0.000193809
1910    0.120138    0.775311    0.534253  0.000110332
1920    0.120764    0.775471    0.888648  -7.94981e-05
1930    0.121728    0.775717    0.912102  0.000267857
1940    0.115407    0.774103     1.38529  0.000206261
1950    0.117602    0.774664    0.108664  2.18701e-05
1960     0.11497    0.773991    0.817663  0.000111685
1970    0.115369    0.774093    0.510522  0.000140313
1980    0.112163    0.773275    0.841371  0.000230711
1990    0.110754    0.772915     1.38481  0.000208806
2000    0.107987    0.772208     0.39279  7.35465e-05
2010    0.109284    0.772539   0.0141556  -2.22787e-05
2020    0.108433    0.772322     1.47915  8.51467e-05
2030    0.107581    0.772104     1.02983  0.000164937
2040    0.105134     0.77148    0.888694  9.14138e-05
2050    0.105752    0.771637    0.959264  0.000296566
2060   0.0992027    0.769965   0.0145018  0.000228482
2070    0.101183    0.770471   0.0140401  4.71015e-05
2080   0.0982607    0.769724     0.69947  1.26623e-05
2090    0.100929    0.770406     1.12443  0.000104554
2100   0.0961696     0.76919    0.345212  0.000459449
2110   0.0917405    0.768059     1.05386  0.000179595
2120   0.0925777    0.768273    0.840886  -7.22274e-05
2130    0.093185    0.768428     1.28933  8.27778e-05
2140   0.0909221     0.76785     1.00585  0.000123052
2150    0.090724      0.7678    0.817132  0.000163875
2160   0.0876446    0.767013     0.41479  0.000210264
2170   0.0865187    0.766726    0.556645  0.000112759
2180   0.0853895    0.766437     0.36772  8.41197e-05
2190   0.0848363    0.766296      1.1234  0.000252348
2200   0.0803425    0.765149     1.10013  0.000125176
2210   0.0823328    0.765657     1.12363  7.36047e-05
2220   0.0788704    0.764773    0.910948  0.000276948
2230   0.0767938    0.764242  -0.0818529  0.000161284
2240   0.0756447    0.763949    0.721401  1.01883e-05
2250     0.07659     0.76419    0.886525  -3.0401e-05
2260   0.0762528    0.764104     1.02845  0.000214897
2270   0.0722921    0.763093     1.38287  0.000244388
2280    0.071365    0.762856     1.52484  0.000104613
2290   0.0701998    0.762559     2.16246  6.96834e-05
2300   0.0699713      0.7625     1.66665  -4.75686e-05
2310   0.0711512    0.762801      2.2331  -5.34851e-05
2320    0.071041    0.762773     1.61879  -8.31861e-05
2330   0.0728149    0.763226     1.50055  3.46843e-05
2340   0.0703473    0.762596    0.957279  9.35961e-05
2350    0.070943    0.762748     1.35845  0.000117683
2360   0.0679937    0.761995     2.20891  0.000200601
2370    0.066931    0.761724     1.90211  0.00010047
2380   0.0659843    0.761482    0.555653  8.29879e-05
2390   0.0652712      0.7613     1.64202  0.000142612
2400    0.063132    0.760754     2.04346  -5.94035e-06
2410     0.06539     0.76133     1.94918  -4.13597e-05
2420   0.0639592    0.760965     2.18557  0.000101544
2430   0.0633592    0.760812      1.9251  7.19473e-05
2440   0.0625203    0.760597     1.61796  0.000287522
2450   0.0576087    0.759343     1.26401  -8.34309e-05
2460   0.0641889    0.761024     1.49965  0.000163093
2470   0.0543469     0.75851      1.2403  0.000246489
2480   0.0592591    0.759765     1.87755  -0.000287265
2490   0.0600922    0.759977     1.26283  4.90854e-05
2500   0.0582774    0.759514     1.09743  7.91248e-05
2510   0.0585097    0.759573     1.38091  1.91277e-05
2520   0.0578949    0.759416    0.931841  0.000188406
2530   0.0547416    0.758611     1.00331  0.000110005
2540   0.0556948    0.758854    0.436075  8.64422e-05
2550   0.0530127    0.758169     1.59345  0.000110693
2560   0.0534809    0.758289      1.0025  0.000232706
2570   0.0483586    0.756981     1.64093  0.000281663
2580   0.0478477     0.75685     1.40411  -1.58833e-05
2590   0.0486762    0.757062     1.78198  6.35216e-05
2600   0.0465772    0.756526     0.97921  8.18206e-05
2610   0.0470398    0.756644     1.82956  8.82976e-05
2620   0.0448113    0.756075     1.45115  0.000321214
2630   0.0406155    0.755004     1.28631  0.000285188
2640   0.0391075    0.754619     2.27874  -0.000328473
2650    0.047185    0.756681    0.978127  -0.000113307
2660   0.0413737    0.755197     1.38047  0.000267589
2670   0.0418332    0.755315     0.67147  4.03328e-05
2680    0.040567    0.754991     2.01827  -2.76119e-05
2690   0.0423855    0.755456     1.52158  -8.31511e-05
2700     0.04223    0.755416     1.85232  4.03443e-05
2710   0.0415786     0.75525     1.49834  0.000263866
2720   0.0369527    0.754068     1.49804  0.000146323
2730   0.0386521    0.754502     1.68692  -8.31276e-05
2740   0.0386153    0.754493     1.07243  0.000184356
2750    0.034965    0.753561    0.765632  0.000234539
2760   0.0339245    0.753295    0.363775  0.000122994
2770   0.0325051    0.752932    0.670616  0.00014211
2780   0.0310823    0.752569    0.434183  0.000104893
2790   0.0304073    0.752397    0.717986  7.38265e-05
2800   0.0296058    0.752192     0.90661  1.11802e-05
2810   0.0301837     0.75234     1.02462  0.000218935
2820   0.0252271    0.751074    0.954165  4.28068e-05
2830   0.0293275    0.752121    0.316105  -0.000133112
2840   0.0278893    0.751754     1.23711  -6.44669e-05
2850   0.0306169     0.75245    0.740517  1.79256e-05
2860   0.0275308    0.751662     0.59903  0.000163373
2870   0.0273494    0.751616    0.457245  -5.80716e-05
2880   0.0286922    0.751959    0.622439  4.35303e-05
2890   0.0264788    0.751394    0.504338  0.000177051
2900   0.0251512    0.751055  0.00820281  -5.18045e-05
2910   0.0275149    0.751658  -0.0391897  6.95085e-05
2920    0.023761      0.7507    0.197335  -3.93758e-05
2930   0.0283024    0.751859    0.149204  -0.000147641
2940   0.0267139    0.751454  -0.0163593  5.31003e-06
2950   0.0281962    0.751832  -0.0399976  7.61488e-05
2960   0.0251909    0.751065    0.385268  0.000185243
2970   0.0244914    0.750886    0.763625  0.00030183
2980   0.0191543    0.749523    0.645985  0.000141281
2990   0.0216657    0.750164    0.125865  -4.49775e-05
3000   0.0200538    0.749753   -0.417917  -6.48054e-05
3010   0.0229618    0.750495   -0.370755  0.000103609
3020   0.0179816    0.749224    0.220051  0.000336724
3030   0.0162274    0.748776    0.362229  -3.85471e-05
3040   0.0187526    0.749421   -0.630688  -5.85848e-06
3050   0.0163445    0.748806     0.38589  0.000189048
3060   0.0149716    0.748455   -0.204569  -7.76661e-05
3070   0.0178979    0.749202   -0.559541  -0.000123274
3080   0.0174371    0.749085  -0.0162665  -4.53742e-05
3090   0.0188053    0.749434    0.810394  0.000131408
3100   0.0148089    0.748413    0.432799  0.000170784
3110   0.0153897    0.748562   -0.204938  -0.000143592
3120   0.0176808    0.749147   -0.134668  -0.000176841
3130   0.0189265    0.749465   -0.347531  -0.000111498
3140   0.0199108    0.749716    0.762655  0.000125573
3150    0.016415    0.748824    0.314168  7.92532e-05
3160   0.0183257    0.749312    0.833641  0.000126226
3170   0.0138905    0.748179    0.976188  0.000112945
3180   0.0160668    0.748735    0.503069  -0.000178101
3190   0.0174525    0.749089    0.455653  -9.23123e-05
3200    0.017913    0.749206     -0.3244  7.36865e-05
3210   0.0159788    0.748712    0.077411  0.000140347
3220   0.0151061    0.748489   -0.891428  7.34059e-06
3230    0.015832    0.748675   0.0305266  -5.90519e-06
3240   0.0152242    0.748519     -1.0566  1.40627e-05
3250   0.0155507    0.748603   0.0059418  -5.90519e-06
3260   0.0153423     0.74855   -0.206437  0.000161879
3270   0.0123131    0.747776    -0.65518  7.93627e-07
3280   0.0153264    0.748546    -1.12786  -5.93903e-05
3290   0.0135009    0.748079   -0.986098  0.000115361
3300   0.0130192    0.747956   -0.986537  0.000338708
3310  0.00672678     0.74635    -1.26937  0.000427192
3320  0.00447534    0.745775   -0.914606  -0.000153722
3330  0.00980121    0.747135   -0.986283  -0.000343516
3340   0.0113457    0.747529    -1.50633  3.56062e-05
3350  0.00908909    0.746953   -0.797173  -9.39112e-05
3360   0.0132239    0.748009    -1.27034  2.89541e-05
3370     0.00851    0.746805   -0.986445  0.000212738
3380  0.00896912    0.746922    -1.12839  4.28535e-05
3390  0.00765294    0.746586   -0.419532  3.59913e-05
3400  0.00824929    0.746738    -1.62455  4.30868e-05
3410   0.0067912    0.746366   -0.514063  9.79607e-05
3420  0.00629007    0.746238    -1.01048  0.000194614
3430  0.00289891    0.745372    -1.19894  0.000201943
3440  0.00225121    0.745207   -0.632187  1.65135e-05
3450  0.00256864    0.745288    -1.27048  5.11277e-05
3460  0.00122865    0.744945    -1.55437  3.04362e-05
3470  0.00195992    0.745132   -0.845212  3.02261e-06
3480   0.0011682     0.74493    -1.67192  -0.000115128
3490  0.00426247     0.74572    -1.20016  -3.18483e-05
3500  0.00180517    0.745093    -1.38916  0.000211338
3510  3.57112e-05    0.744641    -2.19211  0.000274801
3520  -0.00369086    0.743689    -1.76659  1.7132e-05
3530  -0.00030693    0.744553    -1.64895  7.36631e-05
3540  -0.00516412    0.743313    -1.53025  0.000346399
3550  -0.0072349    0.742784   -0.844728  0.000102279
3560  -0.0072097    0.742791    -1.31748  3.24435e-05
3570  -0.00788378    0.742618    -1.67217  -8.7189e-05
3580  -0.00546592    0.743236    -1.03474  -0.000122375
3590  -0.00543627    0.743243    -1.83781  1.81824e-05
3600  -0.00582956    0.743143    -1.64895  0.000124254
3610  -0.00792135    0.742609    -2.09781  0.000117392
3620  -0.0081774    0.742543    -1.76671  3.99009e-05
3630  -0.00871937    0.742405    -1.76712  -7.35698e-05
3640   -0.006706    0.742919    -1.38934  -0.000116353
3650  -0.00639231    0.742999    -1.31838  -5.98104e-05
3660  -0.0055098    0.743225    -1.27138   -7.42e-05
3670  -0.00490831    0.743378    -1.08243  0.000175673
3680  -0.00902327    0.742327    -1.27135  0.00015441
3690  -0.00799651     0.74259    -1.81456  -0.000188896
3700  -0.00524535    0.743292    -1.08264  -0.000203787
3710  -0.00392076     0.74363    -1.12996  9.0375e-05
3720  -0.00705285    0.742831     -0.3265  0.000104811
3730  -0.00601699    0.743095    -1.55513  -6.77112e-05
3740  -0.00569862    0.743176   -0.515655  1.86842e-05
3750  -0.00639067       0.743    -1.27193  -3.9259e-05
3760  -0.00491344    0.743377   -0.752088  4.06244e-05
3770  -0.00720316    0.742792    -0.96472  0.000258334
3780  -0.0100801    0.742058   -0.869959  0.000200858
3790  -0.0112203    0.741766   -0.562609  -0.000162649
3800  -0.00682714    0.742888   -0.941244  -0.000315963
3810  -0.00490107     0.74338     -1.2485  4.83035e-05
3820  -0.00779321    0.742642    -1.13049  0.000143265
3830  -0.00776637    0.742648   -0.941451  -2.47177e-05
3840  -0.00729886    0.742768    -1.17751  -3.95041e-05
3850  -0.00697629     0.74285     -1.1304  3.39373e-05
3860  -0.0079776    0.742594   -0.799365  -0.000179793
3870  -0.00338043    0.743768   -0.846896  -9.13087e-05
3880  -0.00615143    0.743061   -0.114422  4.83152e-05
3890  -0.00434673    0.743522   -0.728819  -9.92678e-05
3900  -0.00416607    0.743568   -0.941359  -0.000166512
3910  -0.00101649    0.744372    -1.08365  -0.000144584
3920  -0.0012744    0.744306   -0.941659  -2.61765e-05
3930  -0.000492955    0.744506    -1.05985  -0.000167819
3940  0.00208199    0.745163    -1.15468  -4.88403e-05
3950  0.000483852    0.744755   -0.823996  0.00021247
3960  -0.00216741    0.744078    -1.41436  -5.65194e-05
3970  0.00161424    0.745044   -0.941912  -0.000123799
3980  0.000308564    0.744711   -0.941613  6.32298e-05
3990  0.000349643    0.744721   -0.988936  -9.44947e-05
4000  0.00219846    0.745193    -1.08372  0.000161739
4010  -0.00288514    0.743895   -0.964813  3.0693e-06
4020  0.00213707    0.745177    -1.08381  -0.00017006
4030  0.000516062    0.744763   -0.375208  0.000192584
4040  -0.0017146    0.744194   -0.729257  -0.000194043
4050  0.00439691    0.745755   -0.848143  0.00014826
4060  -0.0046798    0.743437   -0.682326  0.000398845
4070  -0.00357999    0.743717   -0.563878  0.00024845
4080  -0.0096488    0.742168   -0.516025  0.000386288
4090  -0.0113057    0.741745   -0.918205  -0.00017097
4100  -0.00622939    0.743041    -1.15487  -8.66172e-05
4110  -0.0095734    0.742187   -0.161906  0.000181264
4120  -0.00985466    0.742115    -0.82349  -4.87586e-05
4130  -0.00859823    0.742436    0.428438  -9.50432e-05
4140  -0.0079538    0.742601   -0.634795  2.0388e-05
4150  -0.00900599    0.742332   -0.492755  8.99899e-05
4160  -0.0097536    0.742141   -0.823626  6.70927e-05
4170  -0.0103478    0.741989   -0.421816  0.000144887
4180  -0.0126513    0.741401   -0.469324  5.97521e-05
4190  -0.0115429    0.741684   -0.162113  -0.000391481
4200  -0.00482171      0.7434   0.0968506  -0.000158308
4210  -0.00837673    0.742493   -0.115621  0.000387362
4220  -0.0125689    0.741422  -0.0679971  0.000138142
4230  -0.0111396    0.741787    0.262552  0.000162719
4240  -0.0158233    0.740591  -0.0206969  0.000107635
4250  -0.0132923    0.741237    0.215159  -4.88287e-05
4260  -0.0148468     0.74084   -0.422993  0.000179408
4270  -0.0168804    0.740321   0.0974505  6.14793e-05
4280  -0.0160763    0.740526   -0.257246  -9.63152e-05
4290  -0.0149541    0.740813   -0.281461  0.000236266
4300  -0.0208017     0.73932   -0.210129  0.000101485
4310  -0.0169838    0.740295    0.332868  -0.000112012
4320  -0.0185614    0.739892    0.545685  0.000181929
4330  -0.0206224    0.739365    0.167674  -0.000152741
4340  -0.0155066    0.740672   -0.541786  0.000231178
4350   -0.025246    0.738185  -0.0682748  0.000430904
4360  -0.0241247    0.738471   0.0497814  -0.000200485
4370  -0.0212363    0.739209     0.66374  -5.62977e-05
4380  -0.0229987    0.738759   0.0497349  0.000265138
4390   -0.026539    0.737854   -0.281161  0.000193331
4400  -0.0268653    0.737771    0.096758  -7.24028e-05
4410   -0.025091    0.738224   -0.163383  8.94297e-05
4420  -0.0286539    0.737314   -0.281207  0.000251531
4430  -0.0301216     0.73694   -0.257937  5.76165e-05
4440  -0.0298063     0.73702   -0.494163  9.86609e-05
4450  -0.0320948    0.736436   -0.517985   0.0003353
4460  -0.0365123    0.735308   0.0257728  7.48886e-05
4470  -0.0335926    0.736053   -0.517986  -6.3323e-05
4480  -0.0352458    0.735631   -0.423085  5.08243e-05
4490  -0.0346091    0.735794   -0.682972  3.48009e-05
4500  -0.0359418    0.735453   -0.588394  -3.93407e-05
4510  -0.0338222    0.735995   -0.163475  -0.000237036
4520  -0.0312011    0.736664   -0.541486  2.64566e-05
4530  -0.0343514    0.735859    -1.13222  0.000224596
4540   -0.035693    0.735517    -1.08494  5.15245e-05
4550  -0.0353819    0.735596    -0.39977  -1.45296e-05
4560  -0.0354024    0.735591   -0.352654  1.86376e-05
4570  -0.0357546    0.735501     0.33266  3.53144e-05
4580  -0.0361087    0.735411   -0.494509  1.87658e-05
4590  -0.0361299    0.735405   -0.305607  -8.15289e-05
4600  -0.0344781    0.735827   -0.872451  -9.84041e-05
4610  -0.0341619    0.735908      -0.447  -0.000124126
4620  -0.0319956    0.736461   -0.352654  -0.000124429
4630  -0.0316733    0.736543   -0.352769  9.8614e-06
4640  -0.0321928    0.736411    0.214421  -0.000344882
4650  -0.0247756    0.738305   -0.282845  -5.78614e-05
4660  -0.0310356    0.736706    0.379615  0.000220371
4670  -0.0291831    0.737179   -0.754811  -8.36996e-05
4680  -0.0293616    0.737134   -0.353208  0.000205071
4690  -0.0332845    0.736132    -1.18017  -0.000152531
4700   -0.026311    0.737913    -0.56644  -0.000314387
4710  -0.0269967    0.737738   -0.329915  2.60249e-05
4720  -0.0268315     0.73778    -0.18806  -2.52313e-05
4730  -0.0264921    0.737866   -0.329683  -0.000111265
4740  -0.0246062    0.738348    0.236928  -0.000154527
4750  -0.0234016    0.738656   -0.117513  -1.72137e-05
4760  -0.0242619    0.738436   -0.165114  0.000267519
4770   -0.028752    0.737289  -0.0700509  0.000155717
4780  -0.0273763    0.737641   -0.282776  -0.000233255
4790  -0.0240869    0.738481    0.260499  -0.000216706
4800  -0.0230421    0.738747  -0.0471966  5.21081e-05
4810   -0.025129    0.738215    0.401915  0.000104379
4820  -0.0251297    0.738214    0.118389  4.3752e-05
4830  -0.0260041    0.737991    0.591001  0.000306545
4840  -0.0312606    0.736649  0.000818643  0.00012311
4850  -0.0284663    0.737362  -0.0939665  -0.000288794
4860  -0.0254847    0.738124  -0.0233734  -0.000342711
4870  -0.0216121    0.739113    0.992374  -0.000141001
4880  -0.0226647    0.738844    0.212621  0.000140896
4890    -0.02443    0.738393    0.188844  0.000150197
4900  -0.0256687    0.738077    0.921042  1.76805e-05
4910  -0.0247836    0.738303    0.188452  0.000151411
4920  -0.0286969    0.737303    0.424861  0.000409955
4930  -0.0329827    0.736209    0.165574  0.00031329
4940  -0.0349627    0.735703    0.732372  -0.000275653
4950  -0.0274696    0.737617   0.0468036  -0.000455073
4960  -0.0258612    0.738028    0.660764  2.74487e-05
4970  -0.0280186    0.737477    0.329868  0.000495195
4980  -0.0357651    0.735498   0.0707886  0.000361465
4990  -0.0352479    0.735631    0.330307  0.000227735
