Time   Number   
ps   
0          42          26
10          43          29
20          43          24
30          42          25
40          41          26
50          40          23
60          43          25
70          44          25
80          41          31
90          44          26
100          45          28
110          45          21
120          43          26
130          42          27
140          45          26
150          43          28
160          44          23
170          38          31
180          45          29
190          42          30
200          41          28
210          41          28
220          42          28
230          41          22
240          42          31
250          40          25
260          45          28
270          43          25
280          41          28
290          40          31
300          40          25
310          41          27
320          42          23
330          40          25
340          42          20
350          41          26
360          42          24
370          44          21
380          44          26
390          43          26
400          39          28
410          40          27
420          36          25
430          40          21
440          43          24
450          41          27
460          44          27
470          39          29
480          41          27
490          42          25
500          40          27
510          44          26
520          44          26
530          46          23
540          43          22
550          44          27
560          45          29
570          42          26
580          42          27
590          40          33
600          42          31
610          43          27
620          42          29
630          42          27
640          38          27
650          41          29
660          43          28
670          42          30
680          43          35
690          44          27
700          43          25
710          42          26
720          41          28
730          43          29
740          43          26
750          41          21
760          41          27
770          43          20
780          42          19
790          40          26
800          40          24
810          42          23
820          43          24
830          41          23
840          43          28
850          41          21
860          38          34
870          40          22
880          41          27
890          44          21
900          44          32
910          44          25
920          45          23
930          44          27
940          45          22
950          44          28
960          44          23
970          43          28
980          45          25
990          44          23
1000          45          22
1010          42          28
1020          43          25
1030          44          26
1040          43          21
1050          41          30
1060          44          23
1070          41          26
1080          45          27
1090          40          31
1100          44          24
1110          43          26
1120          42          28
1130          42          22
1140          42          23
1150          44          20
1160          41          28
1170          43          22
1180          44          26
1190          44          29
1200          42          31
1210          38          28
1220          39          26
1230          39          25
1240          45          22
1250          41          27
1260          45          24
1270          44          30
1280          44          22
1290          44          26
1300          40          26
1310          40          24
1320          40          27
1330          45          27
1340          45          24
1350          44          30
1360          39          31
1370          39          23
1380          44          24
1390          45          29
1400          43          30
1410          43          28
1420          47          24
1430          45          26
1440          42          27
1450          45          28
1460          44          31
1470          45          30
1480          45          27
1490          43          33
1500          44          25
1510          41          29
1520          41          25
1530          43          23
1540          42          25
1550          43          24
1560          42          28
1570          43          27
1580          43          27
1590          45          26
1600          44          27
1610          43          32
1620          44          27
1630          43          32
1640          46          34
1650          44          24
1660          45          31
1670          42          37
1680          44          29
1690          47          29
1700          43          29
1710          46          28
1720          47          27
1730          47          27
1740          46          31
1750          47          35
1760          43          34
1770          43          29
1780          44          27
1790          45          29
1800          46          24
1810          44          22
1820          42          30
1830          43          27
1840          46          28
1850          45          26
1860          46          28
1870          45          30
1880          44          27
1890          45          26
1900          43          28
1910          42          28
1920          43          30
1930          46          25
1940          45          29
1950          47          25
1960          46          28
1970          45          26
1980          45          24
1990          45          27
2000          45          25
2010          46          28
2020          48          24
2030          49          24
2040          47          24
2050          47          27
2060          43          29
2070          46          26
2080          47          25
2090          45          29
2100          45          27
2110          47          30
2120          44          32
2130          47          35
2140          45          33
2150          46          29
2160          46          29
2170          46          32
2180          43          30
2190          46          30
2200          44          30
2210          45          32
2220          45          29
2230          42          35
2240          45          29
2250          45          31
2260          44          27
2270          43          27
2280          43          23
2290          42          33
2300          44          27
2310          46          29
2320          45          27
2330          43          32
2340          41          37
2350          42          31
2360          41          39
2370          40          30
2380          42          36
2390          45          28
2400          43          33
2410          43          27
2420          42          34
2430          46          29
2440          42          32
2450          43          27
2460          42          36
2470          43          33
2480          44          35
2490          45          30
2500          42          31
2510          43          30
2520          45          30
2530          41          28
2540          43          32
2550          43          32
2560          44          25
2570          42          33
2580          42          27
2590          41          27
2600          40          32
2610          44          23
2620          42          30
2630          43          28
2640          42          29
2650          42          33
2660          43          31
2670          37          35
2680          39          34
2690          43          36
2700          43          31
2710          42          30
2720          42          25
2730          40          28
2740          40          33
2750          40          27
2760          41          30
2770          44          24
2780          41          35
2790          42          26
2800          40          21
2810          41          28
2820          41          28
2830          40          31
2840          41          29
2850          41          29
2860          39          32
2870          38          29
2880          42          36
2890          40          31
2900          41          27
2910          40          27
2920          40          24
2930          37          26
2940          40          25
2950          40          34
2960          41          30
2970          43          29
2980          44          26
2990          43          34
3000          41          30
3010          43          33
3020          40          33
3030          42          27
3040          40          28
3050          39          33
3060          40          29
3070          41          39
3080          37          33
3090          43          30
3100          42          29
3110          39          33
3120          42          30
3130          45          30
3140          42          36
3150          42          32
3160          40          38
3170          40          31
3180          44          30
3190          42          36
3200          43          33
3210          38          41
3220          42          36
3230          47          33
3240          44          42
3250          44          40
3260          43          30
3270          45          35
3280          44          31
3290          45          32
3300          43          32
3310          44          30
3320          41          38
3330          46          29
3340          44          26
3350          44          26
3360          42          36
3370          44          31
3380          44          31
3390          44          29
3400          42          31
3410          41          37
3420          45          27
3430          46          26
3440          42          31
3450          45          28
3460          44          25
3470          42          30
3480          43          29
3490          47          28
3500          44          29
3510          46          29
3520          45          27
3530          44          31
3540          44          25
3550          45          24
3560          46          26
3570          45          29
3580          47          29
3590          43          29
3600          45          32
3610          43          36
3620          45          29
3630          48          26
3640          47          28
3650          45          27
3660          44          31
3670          42          29
3680          44          29
3690          46          25
3700          44          30
3710          41          32
3720          43          24
3730          43          31
3740          45          26
3750          45          34
3760          44          37
3770          44          37
3780          42          37
3790          43          29
3800          43          32
3810          45          37
3820          44          40
3830          45          34
3840          44          31
3850          47          31
3860          40          32
3870          47          28
3880          43          29
3890          43          30
3900          43          32
3910          44          30
3920          44          32
3930          41          27
3940          44          26
3950          44          27
3960          45          32
3970          42          31
3980          43          30
3990          45          31
4000          46          28
4010          43          30
4020          49          34
4030          43          32
4040          42          29
4050          47          38
4060          41          34
4070          41          31
4080          41          31
4090          44          33
4100          40          28
4110          43          26
4120          42          26
4130          43          32
4140          42          23
4150          42          23
4160          43          23
4170          42          25
4180          44          29
4190          42          31
4200          43          24
4210          45          26
4220          42          27
4230          44          29
4240          44          29
4250          42          30
4260          44          26
4270          42          27
4280          43          25
4290          44          23
4300          43          27
4310          41          31
4320          42          32
4330          41          28
4340          42          27
4350          43          27
4360          42          30
4370          43          27
4380          45          27
4390          44          32
4400          41          32
4410          43          29
4420          45          32
4430          42          32
4440          45          29
4450          45          30
4460          41          29
4470          42          35
4480          43          35
4490          42          30
4500          43          28
4510          46          30
4520          42          30
4530          41          23
4540          44          29
4550          43          29
4560          45          31
4570          45          28
4580          46          32
4590          41          24
4600          43          24
4610          43          27
4620          42          30
4630          39          29
4640          43          27
4650          42          32
4660          43          26
4670          42          32
4680          43          26
4690          40          30
4700          39          29
4710          43          26
4720          43          28
4730          41          32
4740          41          33
4750          39          25
4760          43          26
4770          43          31
4780          42          29
4790          44          27
4800          43          26
4810          44          26
4820          42          32
4830          44          25
4840          45          28
4850          42          32
4860          43          34
4870          42          31
4880          43          32
4890          44          27
4900          45          28
4910          42          36
4920          47          28
4930          42          31
4940          43          31
4950          47          32
4960          42          35
4970          45          30
4980          45          29
4990          41          34
5000          41          33
5010          45          32
5020          42          34
5030          41          32
5040          44          30
5050          44          29
5060          43          25
5070          41          25
5080          43          30
5090          38          31
5100          39          31
5110          43          32
5120          43          28
5130          41          27
5140          39          31
5150          41          24
5160          42          31
5170          41          29
5180          44          28
5190          42          27
5200          41          26
5210          38          25
5220          42          31
5230          44          29
5240          45          36
5250          41          28
5260          44          30
5270          44          32
5280          43          27
5290          39          31
5300          40          29
5310          41          26
5320          44          25
5330          42          31
5340          45          25
5350          40          35
5360          40          27
5370          41          31
5380          41          33
5390          44          29
5400          43          25
5410          40          30
5420          44          28
5430          40          26
5440          41          26
5450          40          36
5460          43          27
5470          41          30
5480          40          28
5490          40          27
5500          43          30
5510          39          36
5520          42          29
5530          39          32
5540          41          27
5550          39          26
5560          42          29
5570          38          33
5580          37          33
5590          43          28
5600          42          33
5610          42          26
5620          40          33
5630          41          26
5640          41          26
5650          42          26
5660          43          27
5670          41          30
5680          39          33
5690          41          24
5700          39          29
5710          40          31
5720          41          28
5730          42          31
5740          43          28
5750          38          30
5760          42          26
5770          42          29
5780          46          26
5790          41          25
5800          42          27
5810          45          25
5820          44          25
5830          43          31
5840          43          34
5850          44          28
5860          42          35
5870          43          28
5880          41          35
5890          43          27
5900          46          31
5910          44          28
5920          44          27
5930          43          26
5940          43          28
5950          46          28
5960          46          28
5970          45          31
5980          42          32
5990          44          29
6000          44          30
6010          44          30
6020          43          40
6030          45          28
6040          48          28
6050          43          26
6060          43          37
6070          42          33
6080          44          34
6090          48          31
6100          45          35
6110          45          36
6120          46          32
6130          42          27
6140          45          30
6150          45          27
6160          45          29
6170          43          27
6180          43          31
6190          44          28
6200          45          29
6210          40          39
6220          44          32
6230          42          28
6240          42          26
6250          43          34
6260          41          31
6270          43          24
6280          45          34
6290          44          37
6300          46          30
6310          45          29
6320          44          33
6330          45          34
6340          45          27
6350          44          30
6360          44          30
6370          45          35
6380          45          32
6390          45          28
6400          44          31
6410          44          32
6420          43          31
6430          45          30
6440          46          28
6450          45          30
6460          45          26
6470          46          28
6480          45          28
6490          45          29
6500          43          31
6510          46          22
6520          45          27
6530          42          27
6540          42          33
6550          44          26
6560          43          33
6570          42          32
6580          43          30
6590          44          21
6600          44          31
6610          42          28
6620          47          28
6630          43          28
6640          43          28
6650          45          25
6660          40          33
6670          41          26
6680          44          28
6690          45          26
6700          44          28
6710          45          23
6720          42          29
6730          40          34
6740          40          29
6750          45          29
6760          40          28
6770          42          30
6780          41          30
6790          42          31
6800          43          30
6810          44          29
6820          47          28
6830          42          27
6840          40          24
6850          45          28
6860          42          31
6870          45          28
6880          44          26
6890          42          33
6900          43          31
6910          45          26
6920          45          30
6930          45          34
6940          46          27
6950          45          35
6960          43          32
6970          44          30
6980          48          25
6990          42          28
7000          44          29
7010          46          31
7020          45          33
7030          46          31
7040          45          33
7050          45          31
7060          44          29
7070          43          31
7080          44          37
7090          44          34
7100          46          31
7110          44          31
7120          43          33
7130          41          32
7140          43          29
7150          45          36
7160          43          31
7170          38          34
7180          40          35
7190          40          31
7200          41          28
7210          44          29
7220          44          32
7230          43          28
7240          45          30
7250          47          37
7260          44          31
7270          44          31
7280          47          29
7290          43          30
7300          48          29
7310          46          32
7320          44          30
7330          45          35
7340          44          35
7350          47          39
7360          44          36
7370          47          36
7380          45          39
7390          44          37
7400          44          33
7410          45          33
7420          48          29
7430          45          41
7440          50          33
7450          45          34
7460          45          37
7470          45          33
7480          42          35
7490          46          33
7500          43          39
7510          45          37
7520          44          38
7530          46          36
7540          45          37
7550          46          40
7560          47          40
7570          44          32
7580          45          43
7590          45          35
7600          47          36
7610          50          34
7620          44          37
7630          47          43
7640          47          41
7650          52          35
7660          47          29
7670          45          40
7680          49          35
7690          45          32
7700          48          33
7710          47          35
7720          44          38
7730          44          27
7740          46          35
7750          46          37
7760          47          31
7770          43          34
7780          49          26
7790          45          31
7800          48          31
7810          47          34
7820          46          29
7830          47          37
7840          44          31
7850          42          34
7860          45          35
7870          44          34
7880          43          31
7890          44          36
7900          50          31
7910          44          34
7920          47          32
7930          48          28
7940          45          26
7950          48          28
7960          42          40
7970          45          27
7980          46          24
7990          46          25
8000          47          27
8010          43          25
8020          43          26
8030          41          31
8040          43          23
8050          45          24
8060          44          23
8070          47          26
8080          43          30
8090          45          24
8100          46          24
8110          45          21
8120          43          28
8130          46          29
8140          47          30
8150          51          23
8160          45          30
8170          47          27
8180          45          30
8190          45          30
8200          48          28
8210          44          30
8220          47          27
8230          48          28
8240          45          33
8250          48          25
8260          46          33
8270          44          34
8280          44          35
8290          42          26
8300          43          30
8310          45          25
8320          44          23
8330          45          22
8340          46          26
8350          44          30
8360          45          28
8370          44          27
8380          42          27
8390          47          24
8400          43          29
8410          46          26
8420          46          30
8430          44          24
8440          44          28
8450          41          26
8460          42          32
8470          43          21
8480          42          30
8490          44          28
8500          42          29
8510          44          31
8520          46          28
8530          44          34
8540          43          26
8550          42          30
8560          45          25
8570          47          31
8580          41          33
8590          43          27
8600          45          22
8610          41          29
8620          42          29
8630          44          24
8640          42          24
8650          42          22
8660          47          24
8670          44          20
8680          43          23
8690          43          28
8700          42          30
8710          45          28
8720          46          25
8730          41          31
8740          47          25
8750          44          28
8760          44          31
8770          46          31
8780          46          26
8790          47          26
8800          44          26
8810          45          30
8820          45          35
8830          44          22
8840          42          30
8850          46          29
8860          48          29
8870          44          32
8880          47          28
8890          49          33
8900          46          31
8910          44          33
8920          43          36
8930          39          33
8940          44          36
8950          46          31
8960          43          33
8970          45          28
8980          43          26
8990          43          33
9000          46          26
9010          46          33
9020          43          27
9030          43          25
9040          42          31
9050          46          30
9060          44          29
9070          44          29
9080          44          29
9090          43          29
9100          44          25
9110          48          27
9120          45          26
9130          45          27
9140          43          29
9150          46          29
9160          44          31
9170          43          31
9180          42          28
9190          46          26
9200          40          25
9210          44          27
9220          42          33
9230          42          32
9240          44          33
9250          41          25
9260          39          26
9270          44          31
9280          42          24
9290          43          32
9300          44          28
9310          42          23
9320          42          29
9330          43          31
9340          45          31
9350          45          26
9360          46          32
9370          45          30
9380          45          27
9390          43          29
9400          43          31
9410          44          31
9420          43          34
9430          44          25
9440          42          28
9450          43          34
9460          39          37
9470          45          28
9480          42          31
9490          46          25
9500          39          30
9510          43          34
9520          41          34
9530          45          27
9540          43          25
9550          40          36
9560          43          31
9570          45          27
9580          43          27
9590          46          30
9600          45          32
9610          49          29
9620          44          27
9630          43          31
9640          44          23
9650          46          32
9660          43          29
9670          42          38
9680          41          34
9690          41          31
9700          43          30
9710          43          27
9720          42          33
9730          43          29
9740          44          30
9750          46          27
9760          46          27
9770          44          28
9780          39          27
9790          42          31
9800          41          24
9810          40          24
9820          44          26
9830          40          26
9840          44          25
9850          43          22
9860          42          27
9870          42          29
9880          43          25
9890          40          29
9900          42          25
9910          41          22
9920          41          24
9930          43          25
9940          42          26
9950          39          32
9960          43          24
9970          40          27
9980          39          29
9990          43          30
10000          39          30
